% Version 1.00
%
%freq[Hz],re:Trc1_S11,im:Trc1_S11,re:Trc2_S21,im:Trc2_S21,re:Trc3_S12,im:Trc3_S12,re:Trc4_S22,im:Trc4_S22,
1.000000000000000E+007,-1.707193404436112E-001,-4.679088667035103E-002,7.931486964225769E-001,-2.128999680280685E-003,7.978331446647644E-001,-3.090978972613812E-002,-1.780473440885544E-001,-2.907507121562958E-003,
1.299500000000000E+008,-2.189930379390717E-001,2.678012475371361E-002,7.261285781860352E-001,-3.048644065856934E-001,7.254526615142822E-001,-3.025397062301636E-001,-2.201841622591019E-001,1.089403871446848E-002,
2.499000000000000E+008,-2.341532111167908E-001,8.752804994583130E-002,5.681908726692200E-001,-5.096750855445862E-001,5.654993057250977E-001,-5.117488503456116E-001,-2.389522492885590E-001,5.905973166227341E-002,
3.698500000000000E+008,-2.208015769720078E-001,1.652479171752930E-001,3.642304539680481E-001,-6.489606499671936E-001,3.632822036743164E-001,-6.477220058441162E-001,-2.437150329351425E-001,1.212680339813232E-001,
4.898000000000000E+008,-1.761635839939117E-001,2.418093085289002E-001,1.366603076457977E-001,-7.141528725624085E-001,1.365863829851151E-001,-7.134298682212830E-001,-2.241700142621994E-001,1.903323382139206E-001,
6.097500000000000E+008,-1.000875160098076E-001,3.057247698307037E-001,-9.031602740287781E-002,-7.056274414062500E-001,-9.066692739725113E-002,-7.040679454803467E-001,-1.819186210632324E-001,2.562955319881439E-001,
7.297000000000000E+008,-1.775147393345833E-004,3.416126966476440E-001,-2.981504797935486E-001,-6.308445334434509E-001,-2.981350719928742E-001,-6.285855174064636E-001,-1.175737082958221E-001,3.112129271030426E-001,
8.496500000000000E+008,1.121512949466705E-001,3.405462205410004E-001,-4.684997200965881E-001,-4.982577264308929E-001,-4.676293134689331E-001,-4.972350299358368E-001,-3.526066616177559E-002,3.476509749889374E-001,
9.696000000000000E+008,2.241320610046387E-001,3.015415966510773E-001,-5.884308218955994E-001,-3.253398239612579E-001,-5.872387290000916E-001,-3.255630433559418E-001,5.854953080415726E-002,3.606957793235779E-001,
1.089550000000000E+009,3.205517828464508E-001,2.238233983516693E-001,-6.490898728370667E-001,-1.273314058780670E-001,-6.482641696929932E-001,-1.296403855085373E-001,1.565438210964203E-001,3.460606038570404E-001,
1.209500000000000E+009,3.880944848060608E-001,1.161058098077774E-001,-6.476927399635315E-001,7.265461981296539E-002,-6.473513841629028E-001,7.292709499597549E-002,2.506086826324463E-001,3.028469383716583E-001,
1.329450000000000E+009,4.184644222259522E-001,-1.382329501211643E-002,-5.873761177062988E-001,2.614881694316864E-001,-5.868201255798340E-001,2.611015737056732E-001,3.302877247333527E-001,2.340497970581055E-001,
1.449400000000000E+009,4.028979539871216E-001,-1.501330435276032E-001,-4.741382896900177E-001,4.213694334030151E-001,-4.745882749557495E-001,4.205362200737000E-001,3.903670608997345E-001,1.420352011919022E-001,
1.569350000000000E+009,3.419506847858429E-001,-2.767148911952972E-001,-3.226931691169739E-001,5.374314785003662E-001,-3.229582905769348E-001,5.367376804351807E-001,4.224215745925903E-001,3.640329465270042E-002,
1.689300000000000E+009,2.406183779239655E-001,-3.787765204906464E-001,-1.448392122983933E-001,6.035307645797730E-001,-1.448463201522827E-001,6.024368405342102E-001,4.250958263874054E-001,-7.808756083250046E-002,
1.809250000000000E+009,1.081946790218353E-001,-4.438398182392120E-001,4.358457028865814E-002,6.132101416587830E-001,4.204017668962479E-002,6.118693947792053E-001,3.957960605621338E-001,-1.906089186668396E-001,
1.929200000000000E+009,-3.994437307119370E-002,-4.619594514369965E-001,2.228744626045227E-001,5.662901401519775E-001,2.224849760532379E-001,5.658288002014160E-001,3.363324999809265E-001,-2.917561531066895E-001,
2.049150000000000E+009,-1.895028203725815E-001,-4.314541816711426E-001,3.786031603813171E-001,4.683163166046143E-001,3.794761300086975E-001,4.684796929359436E-001,2.495668083429337E-001,-3.747855722904205E-001,
2.169100000000000E+009,-3.203592598438263E-001,-3.525490760803223E-001,4.944182932376862E-001,3.323051333427429E-001,4.957644939422607E-001,3.312250077724457E-001,1.451565325260162E-001,-4.297186732292175E-001,
2.289050000000000E+009,-4.254036843776703E-001,-2.318135797977448E-001,5.677836537361145E-001,1.669702231884003E-001,5.695143342018127E-001,1.645081043243408E-001,2.544460259377956E-002,-4.575936496257782E-001,
2.409000000000000E+009,-4.839974939823151E-001,-8.018636703491211E-002,5.878946781158447E-001,-1.132760010659695E-002,5.882311463356018E-001,-1.464993506669998E-002,-9.895802289247513E-002,-4.517055749893189E-001,
2.528950000000000E+009,-4.877347052097321E-001,8.171328157186508E-002,5.536578297615051E-001,-1.833140105009079E-001,5.526258945465088E-001,-1.859368383884430E-001,-2.130647003650665E-001,-4.118450582027435E-001,
2.648900000000000E+009,-4.371278285980225E-001,2.402736991643906E-001,4.691051840782166E-001,-3.396104276180267E-001,4.675161838531494E-001,-3.404149711132050E-001,-3.164983391761780E-001,-3.415269851684570E-001,
2.768850000000000E+009,-3.362606763839722E-001,3.735065758228302E-001,3.416636586189270E-001,-4.620729982852936E-001,3.403598666191101E-001,-4.609453082084656E-001,-3.971845805644989E-001,-2.455355226993561E-001,
2.888800000000000E+009,-1.973565369844437E-001,4.668729007244110E-001,1.852762401103973E-001,-5.381869673728943E-001,1.855782717466354E-001,-5.381847620010376E-001,-4.497792422771454E-001,-1.320711523294449E-001,
3.008750000000000E+009,-3.521726280450821E-002,5.102664828300476E-001,1.413529738783836E-002,-5.638610720634460E-001,1.548460498452187E-002,-5.642145276069641E-001,-4.697061181068420E-001,-7.137631997466087E-003,
3.128700000000000E+009,1.334812790155411E-001,4.984505474567413E-001,-1.541712880134583E-001,-5.371792316436768E-001,-1.532737463712692E-001,-5.376639366149902E-001,-4.559480249881744E-001,1.186267361044884E-001,
3.248650000000000E+009,2.908561825752258E-001,4.328069686889648E-001,-3.046635389328003E-001,-4.649438261985779E-001,-3.048603534698486E-001,-4.638992249965668E-001,-4.096878767013550E-001,2.359920293092728E-001,
3.368600000000000E+009,4.180207252502441E-001,3.181383609771729E-001,-4.271643757820129E-001,-3.502732515335083E-001,-4.252317845821381E-001,-3.497828245162964E-001,-3.352804481983185E-001,3.362618684768677E-001,
3.488550000000000E+009,5.009551644325256E-001,1.693453490734100E-001,-5.091428756713867E-001,-2.073639184236527E-001,-5.067679882049561E-001,-2.064063251018524E-001,-2.362383455038071E-001,4.142008423805237E-001,
3.608500000000000E+009,5.312042236328125E-001,2.210553735494614E-003,-5.452308654785156E-001,-4.543099552392960E-002,-5.423998236656189E-001,-4.632876068353653E-002,-1.196841523051262E-001,4.646970927715302E-001,
3.728450000000000E+009,5.075139403343201E-001,-1.651653647422791E-001,-5.312040448188782E-001,1.172586157917976E-001,-5.288267135620117E-001,1.155700683593750E-001,6.575746461749077E-003,4.811772108078003E-001,
3.848400000000000E+009,4.326767027378082E-001,-3.169896006584168E-001,-4.684394896030426E-001,2.689979672431946E-001,-4.673073291778565E-001,2.657048702239990E-001,1.342140734195709E-001,4.644561409950256E-001,
3.968350000000000E+009,3.134106397628784E-001,-4.388507306575775E-001,-3.663759231567383E-001,3.922423422336578E-001,-3.660006225109100E-001,3.911491334438324E-001,2.526205778121948E-001,4.137286245822907E-001,
4.088300000000000E+009,1.608965098857880E-001,-5.182036161422730E-001,-2.324768751859665E-001,4.806452095508575E-001,-2.329397350549698E-001,4.803227782249451E-001,3.543162345886231E-001,3.350140154361725E-001,
4.208250000000000E+009,-1.138001773506403E-002,-5.449737906455994E-001,-8.066534250974655E-002,5.268845558166504E-001,-7.831865549087524E-002,5.259717702865601E-001,4.307220876216888E-001,2.309451401233673E-001,
4.328200000000000E+009,-1.859822422266007E-001,-5.144219994544983E-001,7.845573872327805E-002,5.257967114448547E-001,8.075858652591705E-002,5.252099633216858E-001,4.770998358726502E-001,1.107215508818626E-001,
4.448150000000000E+009,-3.423128128051758E-001,-4.268356263637543E-001,2.321386933326721E-001,4.775057733058929E-001,2.330950647592545E-001,4.751612544059753E-001,4.890830218791962E-001,-1.732306554913521E-002,
4.568100000000000E+009,-4.619199633598328E-001,-2.923773229122162E-001,3.632919788360596E-001,3.842574059963226E-001,3.634814918041229E-001,3.836525678634644E-001,4.667589068412781E-001,-1.437977850437164E-001,
4.688050000000000E+009,-5.311219096183777E-001,-1.259232312440872E-001,4.601550996303558E-001,2.573390305042267E-001,4.598940908908844E-001,2.560318708419800E-001,4.114606976509094E-001,-2.589612901210785E-001,
4.808000000000000E+009,-5.420529246330261E-001,5.494231358170509E-002,5.127866268157959E-001,1.078621223568916E-001,5.140983462333679E-001,1.062639728188515E-001,3.281090855598450E-001,-3.551689982414246E-001,
4.927950000000000E+009,-4.936283528804779E-001,2.308774292469025E-001,5.194387435913086E-001,-5.120372772216797E-002,5.206297636032105E-001,-5.164778232574463E-002,2.240738719701767E-001,-4.256168305873871E-001,
5.047900000000000E+009,-3.884569704532623E-001,3.814855515956879E-001,4.794350862503052E-001,-2.027889341115952E-001,4.803513884544373E-001,-2.042977362871170E-001,1.050393357872963E-001,-4.663296043872833E-001,
5.167850000000000E+009,-2.384138852357864E-001,4.891898334026337E-001,3.959673643112183E-001,-3.363780379295349E-001,3.957464098930359E-001,-3.379301130771637E-001,-1.878824830055237E-002,-4.737419784069061E-001,
5.287800000000000E+009,-6.042914465069771E-002,5.390664339065552E-001,2.762511074542999E-001,-4.393192529678345E-001,2.758019268512726E-001,-4.390444457530975E-001,-1.391830891370773E-001,-4.485923051834106E-001,
5.407750000000000E+009,1.214796677231789E-001,5.272399187088013E-001,1.311770677566528E-001,-5.020961165428162E-001,1.309050023555756E-001,-5.000829696655273E-001,-2.476927191019058E-001,-3.947699069976807E-001,
5.527700000000000E+009,2.878453135490418E-001,4.565849304199219E-001,-2.811184152960777E-002,-5.176240801811218E-001,-2.475064620375633E-002,-5.150925517082214E-001,-3.382335603237152E-001,-3.132757544517517E-001,
5.647650000000000E+009,4.206423461437225E-001,3.394547104835510E-001,-1.804880350828171E-001,-4.835340380668640E-001,-1.771581918001175E-001,-4.814101755619049E-001,-4.041734635829926E-001,-2.135185450315476E-001,
5.767600000000000E+009,5.091727375984192E-001,1.867047846317291E-001,-3.163563907146454E-001,-4.045626819133759E-001,-3.120748996734619E-001,-4.043117761611939E-001,-4.407768547534943E-001,-9.989027678966522E-002,
5.887550000000000E+009,5.453392267227173E-001,1.500153448432684E-002,-4.199453890323639E-001,-2.907560765743256E-001,-4.167047441005707E-001,-2.914906740188599E-001,-4.471096098423004E-001,1.817519031465054E-002,
6.007500000000000E+009,5.255618095397949E-001,-1.598119735717773E-001,-4.846251308917999E-001,-1.523622274398804E-001,-4.835185408592224E-001,-1.528733521699905E-001,-4.230585098266602E-001,1.332242637872696E-001,
6.127450000000000E+009,4.511081278324127E-001,-3.202794790267944E-001,-5.066774487495422E-001,-2.558991312980652E-003,-5.051659941673279E-001,-3.262232057750225E-004,-3.693449497222900E-001,2.372162640094757E-001,
6.247400000000000E+009,3.286873996257782E-001,-4.488313198089600E-001,-4.835256338119507E-001,1.484150737524033E-001,-4.804075956344605E-001,1.496056169271469E-001,-2.915800511837006E-001,3.218743801116943E-001,
6.367350000000000E+009,1.726774424314499E-001,-5.314844846725464E-001,-4.151405394077301E-001,2.858104109764099E-001,-4.124765694141388E-001,2.843620777130127E-001,-1.943825632333756E-001,3.828352987766266E-001,
6.487300000000000E+009,-1.050384715199471E-003,-5.615079998970032E-001,-3.085910081863403E-001,3.948916494846344E-001,-3.078576028347015E-001,3.934250175952911E-001,-8.654053509235382E-002,4.162286520004273E-001,
6.607250000000000E+009,-1.759733408689499E-001,-5.357300043106079E-001,-1.761176288127899E-001,4.661875367164612E-001,-1.751511543989182E-001,4.658428132534027E-001,2.583838999271393E-002,4.191233813762665E-001,
6.727200000000000E+009,-3.361149132251740E-001,-4.566554427146912E-001,-3.019389137625694E-002,4.938402771949768E-001,-2.818752638995647E-002,4.960916340351105E-001,1.333406567573547E-001,3.924063146114349E-001,
6.847150000000000E+009,-4.640174806118012E-001,-3.285261094570160E-001,1.163047850131989E-001,4.778806269168854E-001,1.211380735039711E-001,4.793767035007477E-001,2.294970601797104E-001,3.390181362628937E-001,
6.967100000000000E+009,-5.455213785171509E-001,-1.638872921466827E-001,2.525194883346558E-001,4.207234382629395E-001,2.574403882026672E-001,4.205563664436340E-001,3.054385483264923E-001,2.631741166114807E-001,
7.087050000000000E+009,-5.668860077857971E-001,1.917019672691822E-002,3.656975030899048E-001,3.265433609485626E-001,3.700494170188904E-001,3.242510855197907E-001,3.590272068977356E-001,1.717016845941544E-001,
7.207000000000000E+009,-5.276706814765930E-001,1.974652111530304E-001,4.472810029983521E-001,2.012894004583359E-001,4.481526613235474E-001,1.995081156492233E-001,3.858530223369598E-001,7.083001732826233E-002,
7.326950000000000E+009,-4.326443970203400E-001,3.515591025352478E-001,4.871317446231842E-001,5.754953622817993E-002,4.868807792663574E-001,5.663642287254334E-002,3.854038417339325E-001,-3.220885992050171E-002,
7.446900000000000E+009,-2.958401143550873E-001,4.652021825313568E-001,4.811532795429230E-001,-9.102290868759155E-002,4.804968237876892E-001,-9.218460321426392E-002,3.571702837944031E-001,-1.304004341363907E-001,
7.566850000000000E+009,-1.328239291906357E-001,5.299599170684815E-001,4.313828945159912E-001,-2.304608374834061E-001,4.307146370410919E-001,-2.319605201482773E-001,3.051497638225555E-001,-2.161400765180588E-001,
7.686800000000000E+009,4.047745093703270E-002,5.399611592292786E-001,3.421364426612854E-001,-3.480959832668304E-001,3.405833542346954E-001,-3.498389422893524E-001,2.326497584581375E-001,-2.842429876327515E-001,
7.806750000000000E+009,2.061920166015625E-001,4.957671761512756E-001,2.228324115276337E-001,-4.337291419506073E-001,2.201748043298721E-001,-4.349792897701263E-001,1.457395106554031E-001,-3.299404680728912E-001,
7.926700000000000E+009,3.478858470916748E-001,4.009925425052643E-001,8.350344747304916E-002,-4.807663857936859E-001,7.595399767160416E-002,-4.811899662017822E-001,4.803455621004105E-002,-3.517307341098785E-001,
8.046650000000000E+009,4.513574242591858E-001,2.688472270965576E-001,-6.535892933607101E-002,-4.849560260772705E-001,-6.742876768112183E-002,-4.806408286094666E-001,-4.466608166694641E-002,-3.447485566139221E-001,
8.166600000000000E+009,5.054196119308472E-001,1.135158985853195E-001,-2.094147652387619E-001,-4.434295892715454E-001,-2.078981250524521E-001,-4.380198717117310E-001,-1.338250190019608E-001,-3.136872947216034E-001,
8.286550000000000E+009,5.088678002357483E-001,-4.721202328801155E-002,-3.330521881580353E-001,-3.596754968166351E-001,-3.294290304183960E-001,-3.549960255622864E-001,-2.100335657596588E-001,-2.605406343936920E-001,
8.406500000000000E+009,4.663558304309845E-001,-1.988329589366913E-001,-4.249403178691864E-001,-2.415354698896408E-001,-4.203542768955231E-001,-2.396786659955978E-001,-2.671739161014557E-001,-1.897467523813248E-001,
8.526450000000000E+009,3.803904652595520E-001,-3.322292864322662E-001,-4.754337966442108E-001,-1.028146594762802E-001,-4.729296565055847E-001,-1.015503853559494E-001,-3.025002479553223E-001,-1.075482740998268E-001,
8.646400000000000E+009,2.527904808521271E-001,-4.348186552524567E-001,-4.831363856792450E-001,4.421685636043549E-002,-4.807605743408203E-001,4.601998627185822E-002,-3.133014440536499E-001,-2.068696357309818E-002,
8.766350000000000E+009,9.826923906803131E-002,-4.904305040836334E-001,-4.462158381938934E-001,1.861477941274643E-001,-4.435459971427918E-001,1.880276203155518E-001,-3.017352819442749E-001,6.355196982622147E-002,
8.886300000000000E+009,-6.908939778804779E-002,-4.905161857604981E-001,-3.691617548465729E-001,3.123462200164795E-001,-3.674375712871552E-001,3.121069669723511E-001,-2.682708203792572E-001,1.387891769409180E-001,
9.006250000000000E+009,-2.262085229158402E-001,-4.333257079124451E-001,-2.560893893241882E-001,4.097589254379273E-001,-2.549997568130493E-001,4.079473018646240E-001,-2.173406183719635E-001,2.025045007467270E-001,
9.126200000000000E+009,-3.541607260704041E-001,-3.258256912231445E-001,-1.170890629291534E-001,4.676580429077148E-001,-1.192386448383331E-001,4.653450250625610E-001,-1.526899635791779E-001,2.477524578571320E-001,
9.246150000000000E+009,-4.373184740543366E-001,-1.838969737291336E-001,3.159573674201965E-002,4.791920185089111E-001,2.756681665778160E-002,4.784863889217377E-001,-8.205489814281464E-002,2.743349969387054E-001,
9.366100000000000E+009,-4.676777720451355E-001,-2.369600161910057E-002,1.745409667491913E-001,4.443189799785614E-001,1.726290881633759E-001,4.454349875450134E-001,-8.891454897820950E-003,2.818857729434967E-001,
9.486050000000000E+009,-4.432933628559113E-001,1.369889676570892E-001,2.980628013610840E-001,3.681168258190155E-001,2.985558509826660E-001,3.701519668102264E-001,5.984539538621903E-002,2.716953754425049E-001,
9.606000000000000E+009,-3.678743839263916E-001,2.813060283660889E-001,3.926221132278442E-001,2.586631476879120E-001,3.953490853309631E-001,2.601215839385986E-001,1.231952831149101E-001,2.458449155092239E-001,
9.725950000000000E+009,-2.466191798448563E-001,3.900768756866455E-001,4.494269490242004E-001,1.263750195503235E-001,4.523164331912994E-001,1.266385912895203E-001,1.777336597442627E-001,2.064439356327057E-001,
9.845900000000000E+009,-9.621688723564148E-002,4.511755406856537E-001,4.635915756225586E-001,-1.619872823357582E-002,4.653913974761963E-001,-1.649241894483566E-002,2.204679548740387E-001,1.561968773603439E-001,
9.965850000000000E+009,6.105887144804001E-002,4.568998217582703E-001,4.337599575519562E-001,-1.553187668323517E-001,4.342232346534729E-001,-1.544905453920364E-001,2.501527070999146E-001,9.984134137630463E-002,
1.008580000000000E+010,2.076125442981720E-001,4.127643704414368E-001,3.639160990715027E-001,-2.781813144683838E-001,3.643218576908112E-001,-2.749704122543335E-001,2.652481198310852E-001,3.866029903292656E-002,
1.020575000000000E+010,3.312774896621704E-001,3.276982903480530E-001,2.602394223213196E-001,-3.721451759338379E-001,2.622806727886200E-001,-3.681731820106506E-001,2.662186324596405E-001,-2.390841022133827E-002,
1.032570000000000E+010,4.239374101161957E-001,2.139288932085037E-001,1.362816840410233E-001,-4.282758235931397E-001,1.379740685224533E-001,-4.264897108078003E-001,2.523303925991058E-001,-8.460068702697754E-002,
1.044565000000000E+010,4.792712926864624E-001,7.643376290798187E-002,3.582665696740151E-003,-4.443466961383820E-001,3.594342619180679E-003,-4.429971575737000E-001,2.240408957004547E-001,-1.405907422304153E-001,
1.056560000000000E+010,4.898515045642853E-001,-7.439801841974258E-002,-1.263632923364639E-001,-4.207788407802582E-001,-1.258572936058044E-001,-4.207401871681213E-001,1.841696947813034E-001,-1.874727308750153E-001,
1.068555000000000E+010,4.529472291469574E-001,-2.221241593360901E-001,-2.428349852561951E-001,-3.619172275066376E-001,-2.424419373273850E-001,-3.604725897312164E-001,1.338413953781128E-001,-2.227169722318649E-001,
1.080550000000000E+010,3.721979260444641E-001,-3.508560657501221E-001,-3.356540501117706E-001,-2.727494239807129E-001,-3.345831334590912E-001,-2.706683874130249E-001,7.749419659376144E-002,-2.443944662809372E-001,
1.092545000000000E+010,2.552416324615479E-001,-4.490401446819305E-001,-3.982748985290527E-001,-1.608500927686691E-001,-3.963085711002350E-001,-1.592092961072922E-001,1.673859730362892E-002,-2.505525350570679E-001,
1.104540000000000E+010,1.160007417201996E-001,-5.069590806961060E-001,-4.257860481739044E-001,-3.606329858303070E-002,-4.234012067317963E-001,-3.663911670446396E-002,-4.047694057226181E-002,-2.413087487220764E-001,
