% Version 1.00
%
%freq[Hz],re:Trc1_S11,im:Trc1_S11,re:Trc2_S21,im:Trc2_S21,re:Trc3_S12,im:Trc3_S12,re:Trc4_S22,im:Trc4_S22,
5.000000000000000E+008,-2.367626130580902E-001,1.934189349412918E-001,7.815825939178467E-002,-7.391147613525391E-001,7.974459230899811E-002,-7.366761565208435E-001,-2.368214726448059E-001,2.058135271072388E-001,
5.470000000000000E+008,-2.307930141687393E-001,2.328842729330063E-001,-1.306392624974251E-002,-7.365737557411194E-001,-1.652728766202927E-002,-7.333242893218994E-001,-2.218575030565262E-001,2.375265806913376E-001,
5.940000000000000E+008,-2.123159319162369E-001,2.584413588047028E-001,-1.127735525369644E-001,-7.194240093231201E-001,-1.095952391624451E-001,-7.174156308174133E-001,-2.021965533494949E-001,2.726173400878906E-001,
6.410000000000000E+008,-1.831514984369278E-001,2.908670902252197E-001,-2.002253979444504E-001,-6.933323740959168E-001,-1.994314640760422E-001,-6.901668310165405E-001,-1.733891516923904E-001,3.036642968654633E-001,
6.880000000000000E+008,-1.596383601427078E-001,3.275711834430695E-001,-2.826502621173859E-001,-6.544369459152222E-001,-2.825294435024262E-001,-6.517356634140015E-001,-1.449266821146011E-001,3.311661183834076E-001,
7.350000000000000E+008,-1.275015324354172E-001,3.461075723171234E-001,-3.656514585018158E-001,-6.025915741920471E-001,-3.597214221954346E-001,-6.054238677024841E-001,-1.071317270398140E-001,3.574821352958679E-001,
7.820000000000000E+008,-8.932954072952271E-002,3.706395924091339E-001,-4.340215921401978E-001,-5.507270693778992E-001,-4.300107061862946E-001,-5.486001968383789E-001,-6.690318137407303E-002,3.771314322948456E-001,
8.290000000000000E+008,-4.674188047647476E-002,3.932290971279144E-001,-4.927297532558441E-001,-4.861332774162293E-001,-4.895467162132263E-001,-4.862881302833557E-001,-2.398464083671570E-002,3.946464061737061E-001,
8.760000000000000E+008,-8.384034037590027E-003,3.993627727031708E-001,-5.392169952392578E-001,-4.064526557922363E-001,-5.426643490791321E-001,-4.150953888893127E-001,2.560151182115078E-002,4.027632176876068E-001,
9.230000000000000E+008,4.168045520782471E-002,4.193437993526459E-001,-5.903514027595520E-001,-3.394228219985962E-001,-5.837410688400269E-001,-3.410597145557404E-001,7.252158969640732E-002,4.073876440525055E-001,
9.700000000000000E+008,8.998529613018036E-002,4.126300513744354E-001,-6.150476932525635E-001,-2.566651403903961E-001,-6.163437366485596E-001,-2.642893195152283E-001,1.234614998102188E-001,4.052544534206390E-001,
1.017000000000000E+009,1.298534572124481E-001,4.248527288436890E-001,-6.226862668991089E-001,-1.847758740186691E-001,-6.377268433570862E-001,-1.802321672439575E-001,1.749330312013626E-001,3.931219875812531E-001,
1.064000000000000E+009,1.985184401273727E-001,4.164432585239410E-001,-6.534554362297058E-001,-9.570296853780747E-002,-6.510594487190247E-001,-1.011506468057632E-001,2.236405313014984E-001,3.796156048774719E-001,
1.111000000000000E+009,2.354290187358856E-001,4.125842452049255E-001,-6.327199339866638E-001,-3.492212295532227E-002,-6.516466736793518E-001,-1.857562176883221E-002,2.735263109207153E-001,3.558121323585510E-001,
1.158000000000000E+009,3.317213654518127E-001,4.346401393413544E-001,-6.552748680114746E-001,3.228040039539337E-002,-6.438927650451660E-001,5.719520151615143E-002,3.188334107398987E-001,3.278810977935791E-001,
1.205000000000000E+009,3.577392399311066E-001,3.410082757472992E-001,-6.194925308227539E-001,1.374703198671341E-001,-6.270892620086670E-001,1.401731669902802E-001,3.626377880573273E-001,2.930156886577606E-001,
1.252000000000000E+009,5.058209896087647E-001,2.363277077674866E-001,-6.476814150810242E-001,2.208717465400696E-001,-6.078066229820252E-001,2.059508711099625E-001,4.033704400062561E-001,2.529621124267578E-001,
1.299000000000000E+009,5.468732118606567E-001,1.566553860902786E-001,-5.643993020057678E-001,3.332656919956207E-001,-5.611262321472168E-001,2.891645133495331E-001,4.312255680561066E-001,2.040334641933441E-001,
1.346000000000000E+009,4.672589004039764E-001,1.829893290996552E-001,-5.391375422477722E-001,3.416358530521393E-001,-5.210961103439331E-001,3.475738167762756E-001,4.623778760433197E-001,1.544687598943710E-001,
1.393000000000000E+009,4.270561635494232E-001,5.198732018470764E-003,-4.588078856468201E-001,4.268937706947327E-001,-4.761957228183746E-001,4.200395345687866E-001,4.836653769016266E-001,9.419499337673187E-002,
1.440000000000000E+009,4.854003489017487E-001,-7.557132281363010E-003,-3.786706328392029E-001,4.421545565128326E-001,-4.028380811214447E-001,4.530846774578095E-001,5.001391768455505E-001,4.514333978295326E-002,
1.487000000000000E+009,4.825128316879273E-001,2.790436893701553E-002,-3.520711958408356E-001,5.330865383148193E-001,-3.500841557979584E-001,5.035925507545471E-001,5.104763507843018E-001,-2.311674878001213E-002,
1.534000000000000E+009,3.921232223510742E-001,-5.894911289215088E-002,-2.802800834178925E-001,5.208126902580261E-001,-2.799948155879974E-001,5.298980474472046E-001,5.028946995735169E-001,-7.911261171102524E-002,
1.581000000000000E+009,4.907626211643219E-001,-1.223860234022141E-001,-2.213639765977860E-001,5.404637455940247E-001,-2.158866822719574E-001,5.573533177375794E-001,5.006381273269653E-001,-1.425931453704834E-001,
1.628000000000000E+009,4.844609498977661E-001,-1.199719160795212E-001,-1.243984326720238E-001,5.845854878425598E-001,-1.416293531656265E-001,5.789483189582825E-001,4.791456460952759E-001,-2.038267254829407E-001,
1.675000000000000E+009,4.177063107490540E-001,-1.782721728086472E-001,-8.561033010482788E-002,5.784519314765930E-001,-7.645846903324127E-002,5.812468528747559E-001,4.599472880363464E-001,-2.602624297142029E-001,
1.722000000000000E+009,4.609121680259705E-001,-2.884087264537811E-001,-8.767884224653244E-003,5.850830078125000E-001,-4.100430756807327E-003,5.875598192214966E-001,4.276100695133209E-001,-3.186869621276856E-001,
1.769000000000000E+009,4.306472539901733E-001,-2.864217162132263E-001,7.812096178531647E-002,5.724363923072815E-001,7.049111276865006E-002,5.782826542854309E-001,3.894392549991608E-001,-3.671338558197022E-001,
1.816000000000000E+009,3.664711713790894E-001,-3.491091430187225E-001,1.247138530015945E-001,5.675271153450012E-001,1.327417194843292E-001,5.614866018295288E-001,3.464332222938538E-001,-4.182186126708984E-001,
1.863000000000000E+009,3.515654802322388E-001,-4.402344822883606E-001,2.013090401887894E-001,5.382565259933472E-001,2.020850628614426E-001,5.398173332214356E-001,2.946861088275909E-001,-4.588429331779480E-001,
1.910000000000000E+009,3.082574307918549E-001,-4.327887594699860E-001,2.640611827373505E-001,5.011162161827087E-001,2.637599706649780E-001,5.072035193443298E-001,2.415604591369629E-001,-4.933265745639801E-001,
1.957000000000000E+009,2.309182584285736E-001,-4.900752902030945E-001,3.196705579757690E-001,4.767810404300690E-001,3.209527134895325E-001,4.692592024803162E-001,1.799152493476868E-001,-5.246932506561279E-001,
2.004000000000000E+009,1.876231282949448E-001,-5.409025549888611E-001,3.728684186935425E-001,4.218151867389679E-001,3.746565580368042E-001,4.235333800315857E-001,1.168705299496651E-001,-5.447776317596436E-001,
2.051000000000000E+009,1.329566985368729E-001,-5.297545194625855E-001,4.161135256290436E-001,3.712342977523804E-001,4.175167977809906E-001,3.732430934906006E-001,5.217527970671654E-002,-5.588598251342773E-001,
2.098000000000000E+009,4.500417783856392E-002,-5.657575130462647E-001,4.624122381210327E-001,3.208708167076111E-001,4.592991471290588E-001,3.183879554271698E-001,-1.677629910409451E-002,-5.647440552711487E-001,
2.145000000000000E+009,-6.364457309246063E-003,-5.767211318016052E-001,4.894440174102783E-001,2.558663189411163E-001,4.917838871479034E-001,2.572299242019653E-001,-8.378379791975021E-002,-5.610973238945007E-001,
2.192000000000000E+009,-7.158710807561874E-002,-5.572777390480042E-001,5.149034261703491E-001,1.963439881801605E-001,5.146864652633667E-001,1.959491372108460E-001,-1.515400707721710E-001,-5.506138205528259E-001,
2.239000000000000E+009,-1.569046974182129E-001,-5.633161664009094E-001,5.355365872383118E-001,1.313012242317200E-001,5.327069759368897E-001,1.314853131771088E-001,-2.190801799297333E-001,-5.312962532043457E-001,
2.286000000000000E+009,-2.067912966012955E-001,-5.407993793487549E-001,5.377108454704285E-001,6.404119729995728E-002,5.405041575431824E-001,6.447011232376099E-002,-2.806956470012665E-001,-5.035159587860107E-001,
2.333000000000000E+009,-2.765971124172211E-001,-5.081434249877930E-001,5.423017740249634E-001,-1.528648659586906E-003,5.407568812370300E-001,-1.803934574127197E-004,-3.420056104660034E-001,-4.686302840709686E-001,
2.380000000000000E+009,-3.451429605484009E-001,-4.833619594573975E-001,5.361086726188660E-001,-6.734178960323334E-002,5.346331596374512E-001,-6.613422930240631E-002,-3.978438079357147E-001,-4.252508282661438E-001,
2.427000000000000E+009,-3.901700377464294E-001,-4.337462484836578E-001,5.162271261215210E-001,-1.298590898513794E-001,5.182020068168640E-001,-1.291441023349762E-001,-4.469487369060516E-001,-3.773169219493866E-001,
2.474000000000000E+009,-4.526857435703278E-001,-3.867345154285431E-001,4.963949024677277E-001,-1.905893683433533E-001,4.967628717422485E-001,-1.886745691299439E-001,-4.935137629508972E-001,-3.211873769760132E-001,
2.521000000000000E+009,-4.930409789085388E-001,-3.369226455688477E-001,4.671273529529572E-001,-2.478725016117096E-001,4.675315618515015E-001,-2.468868345022202E-001,-5.289170742034912E-001,-2.611483931541443E-001,
2.568000000000000E+009,-5.277504324913025E-001,-2.641058266162872E-001,4.272984564304352E-001,-2.983468174934387E-001,4.305507540702820E-001,-2.977634072303772E-001,-5.597816705703735E-001,-1.974044144153595E-001,
2.615000000000000E+009,-5.727352499961853E-001,-2.054746150970459E-001,3.899694085121155E-001,-3.458060622215271E-001,3.913962244987488E-001,-3.461399376392365E-001,-5.821267962455750E-001,-1.266954094171524E-001,
2.662000000000000E+009,-5.786666274070740E-001,-1.412838101387024E-001,3.403974771499634E-001,-3.885197937488556E-001,3.420934081077576E-001,-3.886851072311401E-001,-5.941992402076721E-001,-5.770986899733543E-002,
2.709000000000000E+009,-5.939666628837585E-001,-5.061000958085060E-002,2.915231585502625E-001,-4.183960258960724E-001,2.939023673534393E-001,-4.227976202964783E-001,-6.004953980445862E-001,1.439551636576653E-002,
2.756000000000000E+009,-6.106796860694885E-001,1.984436064958572E-003,2.434622943401337E-001,-4.500796496868134E-001,2.383282929658890E-001,-4.541236460208893E-001,-5.954115390777588E-001,8.852551132440567E-002,
2.803000000000000E+009,-5.814469456672669E-001,7.785241305828095E-002,1.780245453119278E-001,-4.695947766304016E-001,1.804787814617157E-001,-4.734145402908325E-001,-5.840409398078919E-001,1.575454175472260E-001,
2.850000000000000E+009,-5.734815001487732E-001,1.614517867565155E-001,1.287121474742889E-001,-4.914931356906891E-001,1.242920905351639E-001,-4.924706518650055E-001,-5.629980564117432E-001,2.294156998395920E-001,
2.897000000000000E+009,-5.761368274688721E-001,2.049381136894226E-001,7.053732872009277E-002,-5.078022480010986E-001,6.249663978815079E-002,-4.988930225372315E-001,-5.311865210533142E-001,2.955852150917053E-001,
2.944000000000000E+009,-4.984258711338043E-001,2.648853957653046E-001,9.603759273886681E-003,-4.915862679481506E-001,2.888292074203491E-004,-5.019931793212891E-001,-4.966016113758087E-001,3.581747114658356E-001,
2.991000000000000E+009,-5.038594007492065E-001,3.441352248191834E-001,-5.779855698347092E-002,-4.997766613960266E-001,-5.580704286694527E-002,-4.951243400573731E-001,-4.503706991672516E-001,4.167051613330841E-001,
3.038000000000000E+009,-4.743921756744385E-001,3.725222051143646E-001,-1.279139667749405E-001,-4.907469153404236E-001,-1.151753515005112E-001,-4.809346795082092E-001,-3.994535207748413E-001,4.696100950241089E-001,
3.085000000000000E+009,-4.014589488506317E-001,4.107122421264648E-001,-1.567724347114563E-001,-4.657826423645020E-001,-1.708862781524658E-001,-4.593225717544556E-001,-3.439159393310547E-001,5.162895917892456E-001,
3.132000000000000E+009,-3.737826943397522E-001,5.156972408294678E-001,-2.305207401514053E-001,-4.335372447967529E-001,-2.236411273479462E-001,-4.358491897583008E-001,-2.782753407955170E-001,5.549671649932861E-001,
3.179000000000000E+009,-3.375822901725769E-001,5.146020650863648E-001,-2.798819839954376E-001,-3.943195044994354E-001,-2.705970406532288E-001,-3.987155556678772E-001,-2.106234431266785E-001,5.872209072113037E-001,
3.226000000000000E+009,-2.454606890678406E-001,5.598064661026001E-001,-3.141083419322968E-001,-3.795398473739624E-001,-3.142347037792206E-001,-3.678754270076752E-001,-1.408608257770538E-001,6.108556985855103E-001,
3.273000000000000E+009,-1.811955571174622E-001,6.260858774185181E-001,-3.575352132320404E-001,-3.145166337490082E-001,-3.555293977260590E-001,-3.236359059810638E-001,-6.615252792835236E-002,6.248894333839417E-001,
3.320000000000000E+009,-1.390063613653183E-001,6.131091117858887E-001,-3.871709406375885E-001,-2.743034958839417E-001,-3.840963840484619E-001,-2.771610021591187E-001,6.619554013013840E-003,6.320587992668152E-001,
3.367000000000000E+009,-2.211131900548935E-002,6.367057561874390E-001,-4.236224591732025E-001,-2.340504229068756E-001,-4.170352220535278E-001,-2.306194901466370E-001,8.294840157032013E-002,6.266540288925171E-001,
3.414000000000000E+009,3.792227059602737E-002,6.610229015350342E-001,-4.322141110897064E-001,-1.684356182813644E-001,-4.365256726741791E-001,-1.772319078445435E-001,1.560849845409393E-001,6.152510046958923E-001,
3.461000000000000E+009,9.366839379072189E-002,6.313696503639221E-001,-4.565944373607636E-001,-1.229958459734917E-001,-4.535576999187470E-001,-1.252336204051971E-001,2.305474132299423E-001,5.952581763267517E-001,
3.508000000000000E+009,2.118363380432129E-001,6.195462346076965E-001,-4.671672582626343E-001,-6.712656468153000E-002,-4.633796513080597E-001,-6.840506941080093E-002,2.993794679641724E-001,5.649293661117554E-001,
3.555000000000000E+009,2.586288452148438E-001,6.155901551246643E-001,-4.564360678195953E-001,-1.170637458562851E-002,-4.642633199691773E-001,-1.478711888194084E-002,3.648289740085602E-001,5.286257863044739E-001,
3.602000000000000E+009,3.232404589653015E-001,5.621781349182129E-001,-4.665892422199249E-001,4.534929245710373E-002,-4.632949531078339E-001,4.133236408233643E-002,4.269145727157593E-001,4.827757477760315E-001,
3.649000000000000E+009,4.194291532039642E-001,5.218470096588135E-001,-4.512876272201538E-001,9.719373285770416E-002,-4.507953226566315E-001,9.627776592969894E-002,4.816823601722717E-001,4.299396276473999E-001,
3.696000000000000E+009,4.530632793903351E-001,4.954707324504852E-001,-4.285420179367065E-001,1.439934968948364E-001,-4.344213604927063E-001,1.458238065242767E-001,5.318478941917419E-001,3.726384937763214E-001,
3.743000000000000E+009,5.131762027740479E-001,4.143019318580627E-001,-4.135933518409729E-001,2.030306160449982E-001,-4.131405353546143E-001,1.963720619678497E-001,5.731186866760254E-001,3.077942728996277E-001,
3.790000000000000E+009,5.795840024948120E-001,3.588704764842987E-001,-3.831551969051361E-001,2.418993413448334E-001,-3.841753900051117E-001,2.423280477523804E-001,6.075310707092285E-001,2.386154085397720E-001,
3.837000000000000E+009,5.996268987655640E-001,3.113111555576325E-001,-3.493245244026184E-001,2.812901139259338E-001,-3.517444729804993E-001,2.857834100723267E-001,6.344353556632996E-001,1.655235737562180E-001,
3.884000000000000E+009,6.389153599739075E-001,2.106266319751740E-001,-3.125310838222504E-001,3.272735178470612E-001,-3.140102028846741E-001,3.222649991512299E-001,6.502820253372192E-001,9.055233746767044E-002,
3.931000000000000E+009,6.728979945182800E-001,1.513614654541016E-001,-2.722612321376801E-001,3.522714674472809E-001,-2.727534174919128E-001,3.543956875801086E-001,6.586251854896545E-001,1.382014807313681E-002,
3.978000000000000E+009,6.747030019760132E-001,8.312761783599854E-002,-2.275264412164688E-001,3.815393447875977E-001,-2.285599112510681E-001,3.841505050659180E-001,6.578893661499023E-001,-6.418798863887787E-002,
4.025000000000000E+009,6.844554543495178E-001,-2.205199003219605E-002,-1.778091192245483E-001,4.082321226596832E-001,-1.804562509059906E-001,4.052743315696716E-001,6.468172669410706E-001,-1.403560042381287E-001,
4.072000000000000E+009,6.907905936241150E-001,-7.961870729923248E-002,-1.336813122034073E-001,4.191644489765167E-001,-1.313514113426209E-001,4.218084812164307E-001,6.273182630538940E-001,-2.161229550838471E-001,
4.119000000000000E+009,6.662586927413940E-001,-1.606550663709641E-001,-7.979456335306168E-002,4.317921102046967E-001,-8.160002529621124E-002,4.328402578830719E-001,5.996820330619812E-001,-2.885547876358032E-001,
4.166000000000000E+009,6.476734876632690E-001,-2.535421252250671E-001,-2.581869252026081E-002,4.373478293418884E-001,-2.960128523409367E-002,4.372308850288391E-001,5.626515746116638E-001,-3.569318354129791E-001,
4.213000000000000E+009,6.282158493995667E-001,-3.058584332466126E-001,1.770999468863010E-002,4.350217282772064E-001,2.224934101104736E-002,4.360444247722626E-001,5.180512070655823E-001,-4.215086996555328E-001,
4.260000000000000E+009,5.746676325798035E-001,-3.871037065982819E-001,7.324799895286560E-002,4.275951087474823E-001,7.191421091556549E-002,4.286614656448364E-001,4.661691188812256E-001,-4.800919294357300E-001,
4.307000000000000E+009,5.348746776580811E-001,-4.562727510929108E-001,1.238129138946533E-001,4.138808250427246E-001,1.211432665586472E-001,4.154286086559296E-001,4.071378111839294E-001,-5.321322679519653E-001,
4.354000000000000E+009,4.894138872623444E-001,-5.018181204795837E-001,1.651442050933838E-001,3.992353677749634E-001,1.677651554346085E-001,3.979978561401367E-001,3.425096571445465E-001,-5.778338313102722E-001,
4.401000000000000E+009,4.119693934917450E-001,-5.667505264282227E-001,2.143392264842987E-001,3.705467581748962E-001,2.131184041500092E-001,3.739336729049683E-001,2.727178633213043E-001,-6.144110560417175E-001,
4.448000000000000E+009,3.598168790340424E-001,-6.100566387176514E-001,2.550816833972931E-001,3.435375094413757E-001,2.539693117141724E-001,3.447893559932709E-001,1.993276476860046E-001,-6.428197622299194E-001,
4.495000000000000E+009,2.886756956577301E-001,-6.407943964004517E-001,2.904124557971954E-001,3.147723376750946E-001,2.913279533386231E-001,3.125561773777008E-001,1.221070289611816E-001,-6.626575589179993E-001,
4.542000000000000E+009,1.996262669563294E-001,-6.793037056922913E-001,3.244520425796509E-001,2.707501947879791E-001,3.252195119857788E-001,2.750653624534607E-001,4.424745589494705E-002,-6.731389760971069E-001,
4.589000000000000E+009,1.398635953664780E-001,-6.967002153396606E-001,3.545044362545013E-001,2.347820699214935E-001,3.540061116218567E-001,2.348820269107819E-001,-3.540910035371780E-002,-6.741167306900024E-001,
4.636000000000000E+009,4.933366551995277E-002,-7.043478488922119E-001,3.780614137649536E-001,1.928950697183609E-001,3.777959048748016E-001,1.911032646894455E-001,-1.149217337369919E-001,-6.656108498573303E-001,
4.683000000000000E+009,-3.599109500646591E-002,-7.132923007011414E-001,3.944303095340729E-001,1.414775252342224E-001,3.964931070804596E-001,1.451854705810547E-001,-1.921451091766357E-001,-6.478714346885681E-001,
4.730000000000000E+009,-9.982676804065704E-002,-7.036808133125305E-001,4.106320440769196E-001,9.855938702821732E-002,4.094578921794891E-001,9.793318063020706E-002,-2.677618861198425E-001,-6.210481524467468E-001,
4.777000000000000E+009,-1.970809847116470E-001,-6.820091605186462E-001,4.174502193927765E-001,4.994503036141396E-002,4.169911742210388E-001,4.903927072882652E-002,-3.392781019210815E-001,-5.856761336326599E-001,
4.824000000000000E+009,-2.686616778373718E-001,-6.653544902801514E-001,4.161281883716583E-001,-1.883666031062603E-003,4.188545346260071E-001,-2.393368631601334E-004,-4.062546491622925E-001,-5.415470004081726E-001,
