% Version 1.00
%
%freq[Hz],re:Trc1_S11,im:Trc1_S11,re:Trc2_S21,im:Trc2_S21,re:Trc3_S12,im:Trc3_S12,re:Trc4_S22,im:Trc4_S22,
5.000000000000000E+008,1.133698672056198E-001,-9.804348945617676E-001,6.493533146567643E-005,8.453996997559443E-006,1.351265673292801E-004,-1.209304391522892E-004,7.431396245956421E-001,-6.683405041694641E-001,
5.470000000000000E+008,-2.883658558130264E-002,-9.565917849540710E-001,8.040116517804563E-005,-2.439866875647567E-005,-3.031712913070805E-005,-8.919362153392285E-005,6.946797966957092E-001,-7.198502421379089E-001,
5.940000000000000E+008,-1.730346530675888E-001,-9.676893353462219E-001,-8.301002526422963E-005,-5.867610070708906E-006,-5.101597707835026E-005,-3.565193765098229E-005,6.421248912811279E-001,-7.648748159408569E-001,
6.410000000000000E+008,-2.979083955287933E-001,-9.392041563987732E-001,-1.207799141411670E-005,8.756718671065755E-006,-1.903968041006010E-005,6.590424618480029E-006,5.895787477493286E-001,-8.067759275436401E-001,
6.880000000000000E+008,-4.244193732738495E-001,-8.688863515853882E-001,1.823153525037924E-006,9.623429650673643E-005,-9.070462692761794E-005,3.994577491539531E-005,5.309190750122070E-001,-8.464516997337341E-001,
7.350000000000000E+008,-5.507605075836182E-001,-8.162086606025696E-001,-5.135065657668747E-005,1.026921745506115E-004,-1.091175145120360E-004,1.264428574359044E-004,4.707629084587097E-001,-8.804614543914795E-001,
7.820000000000000E+008,-6.648559570312500E-001,-7.273089885711670E-001,6.982241757214069E-005,-3.387011929589789E-006,2.495934677426703E-005,-1.677237605690607E-006,4.096437692642212E-001,-9.100688695907593E-001,
8.290000000000000E+008,-7.529393434524536E-001,-6.164416670799255E-001,-2.341740946576465E-005,3.698157161124982E-005,-1.918026682687923E-004,5.537396646104753E-005,3.448390364646912E-001,-9.363929033279419E-001,
8.760000000000000E+008,-8.342659473419190E-001,-5.179971456527710E-001,1.019030023599044E-004,-5.784156746813096E-005,2.820572444761638E-005,6.479217699961737E-005,2.807730734348297E-001,-9.584188461303711E-001,
9.230000000000000E+008,-9.094544649124146E-001,-3.645491898059845E-001,3.863558958983049E-005,9.352975030196831E-005,3.722141264006496E-005,4.358817386673763E-005,2.131413519382477E-001,-9.727077484130859E-001,
9.700000000000000E+008,-9.400179982185364E-001,-2.511170208454132E-001,-3.062563791900175E-006,-9.195802704198286E-006,4.195721703581512E-005,4.111491580260918E-005,1.454637497663498E-001,-9.880053997039795E-001,
1.017000000000000E+009,-9.658989310264587E-001,-1.234906911849976E-001,2.825821502483450E-005,-1.790319038263988E-005,3.087082222918980E-005,2.301058520970400E-005,7.727215439081192E-002,-9.949954152107239E-001,
1.064000000000000E+009,-9.525715112686157E-001,7.640188932418823E-002,1.368339962937171E-005,4.003811409347691E-005,-5.953462459729053E-005,6.620659405598417E-005,8.186733350157738E-003,-9.961745142936707E-001,
1.111000000000000E+009,-9.570069313049316E-001,1.480042934417725E-001,-2.598065657366533E-005,1.107914940803312E-004,1.077005872502923E-004,4.597309089149348E-005,-6.191214174032211E-002,-9.954463839530945E-001,
1.158000000000000E+009,-9.068575501441956E-001,2.926283180713654E-001,-3.817857214016840E-005,6.077366197132506E-005,-2.072956021947903E-006,1.099954024539329E-004,-1.293851882219315E-001,-9.876709580421448E-001,
1.205000000000000E+009,-7.723611593246460E-001,4.544088244438171E-001,-3.398377157282084E-005,-2.629508526297286E-005,-8.558989793527871E-005,1.889607483462896E-005,-1.975701302289963E-001,-9.749026298522949E-001,
1.252000000000000E+009,-8.230153322219849E-001,5.193490982055664E-001,8.499950126861222E-006,-2.720078555284999E-005,1.271203746000538E-005,3.763740096474066E-005,-2.655357718467712E-001,-9.610298871994019E-001,
1.299000000000000E+009,-6.632586121559143E-001,6.303423047065735E-001,8.617199637228623E-005,-2.932670577138197E-005,-1.135088314185850E-005,-1.648914985707961E-005,-3.294166326522827E-001,-9.390665292739868E-001,
1.346000000000000E+009,-4.997567832469940E-001,6.416519284248352E-001,-2.203628537245095E-005,-1.040356655721553E-004,-3.650230064522475E-005,-4.527082273853011E-005,-3.947518169879913E-001,-9.126694202423096E-001,
1.393000000000000E+009,-5.117818117141724E-001,8.292451500892639E-001,9.421050344826654E-005,1.488566704210825E-005,8.942776912590489E-005,-1.265684932150180E-005,-4.566596448421478E-001,-8.841007947921753E-001,
1.440000000000000E+009,-2.977026700973511E-001,7.628389596939087E-001,4.362246909295209E-005,-2.903168751799967E-005,1.824996252253186E-005,-8.259781316155568E-005,-5.162783861160278E-001,-8.499752879142761E-001,
1.487000000000000E+009,-3.100737631320953E-001,7.396388053894043E-001,-2.321183728781762E-006,-2.561384462751448E-005,2.524759474908933E-005,-1.142972905654460E-004,-5.732050538063049E-001,-8.105050325393677E-001,
1.534000000000000E+009,-1.222857236862183E-001,8.607830405235291E-001,4.616011574398726E-005,-6.514562119264156E-005,3.086234210059047E-005,-1.676576630416093E-006,-6.298187375068665E-001,-7.690213322639465E-001,
1.581000000000000E+009,-1.103628426790237E-001,7.401237487792969E-001,-3.039401963178534E-005,-9.468608368479181E-006,-4.501091461861506E-005,-9.052363748196513E-005,-6.799525022506714E-001,-7.235264182090759E-001,
1.628000000000000E+009,-4.910359531641007E-002,9.057118892669678E-001,-3.320586620247923E-005,3.893915345543064E-005,-1.893967692012666E-006,-7.782295142533258E-005,-7.283312082290649E-001,-6.725627183914185E-001,
1.675000000000000E+009,1.368126273155212E-001,8.430964946746826E-001,-1.496693730587140E-004,4.379841266199946E-005,-6.843611481599510E-005,-7.358595030382276E-005,-7.743173837661743E-001,-6.221909523010254E-001,
1.722000000000000E+009,1.503617912530899E-001,8.819985985755920E-001,-3.332892811158672E-005,1.640938899072353E-005,3.002147605002392E-005,-4.318242645240389E-005,-8.144412040710449E-001,-5.669443607330322E-001,
1.769000000000000E+009,3.697150945663452E-001,8.883423209190369E-001,-5.631432941299863E-006,-8.441492536803708E-005,-5.688302189810202E-005,4.343564341979800E-006,-8.511005043983460E-001,-5.066692233085632E-001,
1.816000000000000E+009,4.513770639896393E-001,7.760367989540100E-001,3.944247146137059E-005,-1.858470568549819E-005,1.143785266322084E-004,-1.192878480651416E-004,-8.854172229766846E-001,-4.471950232982636E-001,
1.863000000000000E+009,5.934315323829651E-001,7.991942763328552E-001,1.434024306945503E-005,-1.070308280759491E-004,-4.827841985388659E-005,-3.970841862610541E-005,-9.126937389373779E-001,-3.850550055503845E-001,
1.910000000000000E+009,7.075918912887573E-001,6.564813256263733E-001,-1.092673028324498E-005,-6.847899931017309E-005,-8.930584590416402E-005,-3.554967042873614E-005,-9.364150166511536E-001,-3.193576037883759E-001,
1.957000000000000E+009,7.610097527503967E-001,5.502350330352783E-001,-9.360534022562206E-005,-4.739786527352408E-005,-3.204015229130164E-005,-7.168362935772166E-005,-9.576774239540100E-001,-2.548560798168182E-001,
2.004000000000000E+009,9.115858078002930E-001,4.582113027572632E-001,3.428113814152312E-006,-2.657234836078715E-005,-2.873187440854963E-005,1.674469967838377E-005,-9.717023968696594E-001,-1.873880922794342E-001,
2.051000000000000E+009,9.094713330268860E-001,3.110342919826508E-001,-5.735029117204249E-005,-8.394768519792706E-005,-1.275774593523238E-005,5.985181269352324E-005,-9.824101328849793E-001,-1.185241937637329E-001,
2.098000000000000E+009,9.486440420150757E-001,1.813888102769852E-001,3.170793206663802E-005,7.972226740093902E-005,2.302341454196721E-005,3.252744136261754E-005,-9.896106123924255E-001,-5.030734464526177E-002,
2.145000000000000E+009,1.010184407234192E+000,2.809381857514381E-002,-5.327878898242489E-005,-4.033362984046107E-006,-1.664405681367498E-005,-3.167685281368904E-005,-9.889898300170898E-001,1.763544231653214E-002,
2.192000000000000E+009,9.524862170219421E-001,-8.394396305084229E-002,-4.180603355052881E-005,-2.475901965226512E-005,-4.319088475313038E-005,-3.947912409785204E-005,-9.849037528038025E-001,8.777819573879242E-002,
2.239000000000000E+009,9.489368796348572E-001,-2.382257431745529E-001,-2.430996028124355E-005,-2.902304549934343E-005,-3.684592593344860E-005,3.962450136896223E-005,-9.777323603630066E-001,1.553123593330383E-001,
2.286000000000000E+009,9.188868999481201E-001,-3.766966462135315E-001,-9.062827302841470E-005,-4.665400047088042E-005,-3.524453131831251E-005,-6.993207352934405E-005,-9.630302786827087E-001,2.219367027282715E-001,
2.333000000000000E+009,8.320642709732056E-001,-4.665782153606415E-001,-5.163568130228669E-005,3.615413879742846E-005,-7.407521934510442E-006,-8.594433165853843E-005,-9.443874359130859E-001,2.894594073295593E-001,
2.380000000000000E+009,7.671421766281128E-001,-6.091392040252686E-001,-4.980339872417972E-005,1.207442346640164E-005,-1.227459506480955E-005,-5.541651830753835E-007,-9.225547313690186E-001,3.537557125091553E-001,
2.427000000000000E+009,6.755707859992981E-001,-6.994009613990784E-001,-8.999759302241728E-005,4.835171421291307E-005,9.420908099855296E-006,-2.740622585406527E-005,-8.953941464424133E-001,4.162456393241882E-001,
2.474000000000000E+009,5.641558170318604E-001,-7.665203213691711E-001,-7.130428275559098E-005,2.342549851164222E-005,-6.248088175198063E-005,-1.455322581023211E-005,-8.643772602081299E-001,4.787163734436035E-001,
2.521000000000000E+009,4.521685540676117E-001,-8.664104938507080E-001,-9.223036613548175E-005,-2.037922240560874E-005,-6.166139064589515E-005,5.274651266518049E-005,-8.293884396553040E-001,5.374998450279236E-001,
2.568000000000000E+009,3.290910720825195E-001,-8.969957232475281E-001,-5.710534969693981E-005,4.723599340650253E-005,-6.158080213936046E-005,5.474013960338198E-005,-7.895504236221314E-001,5.933030843734741E-001,
2.615000000000000E+009,1.975027471780777E-001,-9.284653663635254E-001,-8.477523078909144E-005,9.846867033047602E-005,-3.073138941545039E-005,1.226244785357267E-004,-7.454838156700134E-001,6.472402811050415E-001,
2.662000000000000E+009,5.460119992494583E-002,-9.676551818847656E-001,-4.959444413543679E-005,7.634687062818557E-005,5.750825948780403E-006,2.149758074665442E-005,-6.989988684654236E-001,6.976836919784546E-001,
2.709000000000000E+009,-6.936953216791153E-002,-9.385334253311157E-001,1.789271664165426E-005,6.297630898188800E-005,-2.479909380781464E-005,7.145669223973528E-005,-6.482174396514893E-001,7.437891960144043E-001,
2.756000000000000E+009,-1.960685700178146E-001,-9.184506535530090E-001,-4.421447738423012E-005,5.440942186396569E-005,-3.646141522040125E-006,5.669637539540418E-005,-5.952812433242798E-001,7.872172594070435E-001,
2.803000000000000E+009,-3.579275310039520E-001,-8.653836846351624E-001,1.326527035416802E-005,1.893756689241855E-006,2.519884765206371E-005,7.067244587233290E-005,-5.396583080291748E-001,8.263932466506958E-001,
2.850000000000000E+009,-4.473212063312531E-001,-8.058733344078064E-001,6.748917076038197E-005,8.235313725890592E-005,6.397956894943491E-005,6.362149724736810E-005,-4.807635545730591E-001,8.614712357521057E-001,
2.897000000000000E+009,-5.241150856018066E-001,-7.559811472892761E-001,-7.121839189494494E-006,7.872093556215987E-005,-1.857790812209714E-005,-1.498665824328782E-005,-4.196640253067017E-001,8.927659392356873E-001,
2.944000000000000E+009,-6.062148213386536E-001,-5.718306899070740E-001,4.550644734990783E-005,6.066534479032271E-005,1.120562410505954E-005,8.502214768668637E-005,-3.572977483272553E-001,9.194123744964600E-001,
2.991000000000000E+009,-7.002022862434387E-001,-5.554744005203247E-001,2.867230250558350E-005,1.266558956558583E-005,5.588509520748630E-005,7.590608583996072E-005,-2.926109433174133E-001,9.420288801193237E-001,
3.038000000000000E+009,-7.588116526603699E-001,-4.941604137420654E-001,1.070780199370347E-004,5.719082764699124E-005,1.053273881552741E-004,9.256765770260245E-005,-2.267256975173950E-001,9.599817991256714E-001,
3.085000000000000E+009,-6.916170120239258E-001,-3.530017435550690E-001,9.149370453087613E-005,-8.808816346572712E-006,1.051188664860092E-004,8.631462151242886E-006,-1.607699245214462E-001,9.734539389610291E-001,
3.132000000000000E+009,-9.049732685089111E-001,-2.740690112113953E-001,1.592829503351823E-004,1.309026265516877E-005,1.567778817843646E-004,2.241281435999554E-005,-9.107947349548340E-002,9.824725985527039E-001,
3.179000000000000E+009,-8.660148978233337E-001,-1.866244524717331E-001,1.110472221625969E-004,3.381115220690845E-006,1.375697902403772E-004,-2.444214987917803E-005,-2.351866662502289E-002,9.867063760757446E-001,
3.226000000000000E+009,-8.450655937194824E-001,-1.020156517624855E-001,1.629706093808636E-004,-9.626476094126701E-005,1.999967062147334E-004,-9.621827484807000E-005,4.431001842021942E-002,9.863291382789612E-001,
3.273000000000000E+009,-9.724127054214478E-001,1.526691019535065E-001,6.209504499565810E-005,-9.137325832853094E-005,7.699908564973157E-006,-1.544918341096491E-004,1.139862909913063E-001,9.799716472625732E-001,
3.320000000000000E+009,-8.856443166732788E-001,1.361052840948105E-001,1.071221849997528E-004,-1.448395923944190E-004,8.404170512221754E-005,-1.706822658888996E-004,1.781152039766312E-001,9.710217714309692E-001,
3.367000000000000E+009,-8.660594224929810E-001,3.066408634185791E-001,-3.758468665182591E-007,-2.165446639992297E-004,8.047985829762183E-006,-2.069752372335643E-004,2.459294497966766E-001,9.553757905960083E-001,
3.414000000000000E+009,-8.225256204605103E-001,5.322968363761902E-001,6.765322723367717E-006,-1.589365856489167E-004,-3.839351484202780E-005,-1.208299945574254E-004,3.118051588535309E-001,9.365400075912476E-001,
3.461000000000000E+009,-7.877268195152283E-001,4.795581996440888E-001,-6.651668809354305E-005,-1.780873863026500E-004,-6.449084321502596E-005,-1.705300237517804E-004,3.758882284164429E-001,9.131436347961426E-001,
3.508000000000000E+009,-6.501926183700562E-001,6.928886175155640E-001,-9.150608093477786E-005,-3.475316043477505E-005,-3.806921085924842E-005,-7.394443673547357E-005,4.375198483467102E-001,8.842850923538208E-001,
3.555000000000000E+009,-5.589366555213928E-001,8.018474578857422E-001,-5.434687045635656E-005,-7.890913548180834E-005,-5.206370769883506E-005,-8.933780191000551E-005,4.977467656135559E-001,8.530036807060242E-001,
3.602000000000000E+009,-5.341020822525024E-001,7.871035337448120E-001,-3.624042437877506E-005,-1.939342109835707E-005,-5.196157871978357E-005,-2.862524888769258E-005,5.545572638511658E-001,8.163927793502808E-001,
3.649000000000000E+009,-2.807360887527466E-001,9.177349209785461E-001,-7.462691428372636E-005,-3.469241710263304E-005,-4.549681034404784E-005,-6.723844853695482E-005,6.099007725715637E-001,7.762058973312378E-001,
3.696000000000000E+009,-2.207419127225876E-001,9.593421220779419E-001,-1.167619775515050E-004,-6.004866372677498E-005,-7.684907905058935E-005,-3.563663995009847E-005,6.628007888793945E-001,7.319727540016174E-001,
3.743000000000000E+009,-1.356556415557861E-001,9.653335809707642E-001,-1.350648672087118E-004,-3.826964530162513E-006,-1.448224356863648E-004,-3.609598570619710E-005,7.109850645065308E-001,6.846935749053955E-001,
3.790000000000000E+009,1.268049478530884E-001,9.540184140205383E-001,-9.227124974131584E-005,7.721272413618863E-005,-4.334797631599940E-005,5.778513877885416E-005,7.565900683403015E-001,6.344313621520996E-001,
3.837000000000000E+009,1.695100665092468E-001,9.827750325202942E-001,-3.810592897934839E-005,9.535710705677047E-005,-2.384460458415560E-005,5.945452357991599E-005,7.997183799743652E-001,5.803463459014893E-001,
3.884000000000000E+009,3.154749870300293E-001,9.350379109382629E-001,1.725991023704410E-005,5.429946031654254E-005,-4.789962622453459E-005,8.966566383605823E-005,8.366779088973999E-001,5.260276794433594E-001,
3.931000000000000E+009,4.964272379875183E-001,8.296983242034912E-001,-4.770936357090250E-005,2.518716792110354E-005,7.988401193870232E-007,3.832271977444179E-005,8.707209825515747E-001,4.655445814132690E-001,
3.978000000000000E+009,5.567018985748291E-001,8.468416929244995E-001,3.672349339467473E-005,5.518132093129680E-005,3.939290763810277E-005,5.379246067604981E-005,9.015682935714722E-001,4.058506190776825E-001,
4.025000000000000E+009,6.945045590400696E-001,7.053358554840088E-001,1.157669521489879E-005,-3.349327243995504E-006,3.671288141049445E-006,8.356694888789207E-005,9.272328615188599E-001,3.438245058059692E-001,
4.072000000000000E+009,7.824967503547669E-001,5.778993964195252E-001,2.536012834752910E-005,-1.272811005037511E-005,-5.021481683797902E-006,-2.075619158858899E-005,9.480027556419373E-001,2.766879796981812E-001,
4.119000000000000E+009,8.689789175987244E-001,5.382010340690613E-001,3.443216883169953E-006,2.934944859589450E-005,3.792314964812249E-005,1.558001940793474E-006,9.663776755332947E-001,2.131575345993042E-001,
4.166000000000000E+009,9.240449666976929E-001,3.454077839851379E-001,5.179782419872936E-006,1.655655614740681E-005,4.185292709735222E-005,6.208619197423104E-006,9.773709177970886E-001,1.468235403299332E-001,
4.213000000000000E+009,9.538098573684692E-001,2.332173436880112E-001,-2.237549051642418E-005,-2.266659066663124E-005,-3.594390727812424E-005,-9.978874004445970E-006,9.851994514465332E-001,7.760174572467804E-002,
4.260000000000000E+009,1.015425205230713E+000,1.112799718976021E-001,-5.355974644771777E-005,7.941558578750119E-005,-1.067639313987456E-004,3.507264773361385E-005,9.902157187461853E-001,1.109208166599274E-002,
4.307000000000000E+009,9.808814525604248E-001,-5.919275432825089E-002,2.258831227663904E-005,3.972921149397735E-006,2.644484084157739E-005,9.876723925117403E-005,9.865607619285584E-001,-5.657090246677399E-002,
4.354000000000000E+009,9.760571718215942E-001,-1.662562191486359E-001,8.534924563718960E-005,6.839611614850583E-006,2.991560540976934E-005,-7.740830369584728E-006,9.815852642059326E-001,-1.260682642459869E-001,
4.401000000000000E+009,9.538071751594544E-001,-3.316879570484161E-001,4.450971755431965E-005,-4.654010263038799E-005,5.325008532963693E-005,-1.282029552385211E-004,9.712336659431458E-001,-1.917686760425568E-001,
4.448000000000000E+009,8.735800981521606E-001,-4.404597282409668E-001,-6.824699084972963E-005,-5.554006929742172E-005,-2.946891981991939E-005,-4.335657285992056E-005,9.550593495368958E-001,-2.574186325073242E-001,
4.495000000000000E+009,8.207905888557434E-001,-5.491913557052612E-001,-4.315144178690389E-005,-5.043535202275962E-005,-4.564362825476565E-005,-3.067942088819109E-005,9.361142516136169E-001,-3.231346309185028E-001,
4.542000000000000E+009,7.188444137573242E-001,-6.844909191131592E-001,-1.157109218183905E-004,-5.268218592391349E-005,-8.537100802641362E-005,-6.954939453862608E-005,9.113417267799377E-001,-3.860458731651306E-001,
4.589000000000000E+009,6.317344903945923E-001,-7.447503805160523E-001,-1.656228123465553E-004,5.148264244780876E-005,-1.099804940167815E-004,5.643852637149394E-005,8.833366036415100E-001,-4.479650855064392E-001,
4.636000000000000E+009,5.161868333816528E-001,-8.328580260276794E-001,-1.548778236610815E-004,4.151772736804560E-005,-1.130245364038274E-004,5.762728324043565E-005,8.504452705383301E-001,-5.080752372741699E-001,
4.683000000000000E+009,3.784943819046021E-001,-9.045460820198059E-001,-1.629545877221972E-004,1.355609856545925E-004,-1.205681110150181E-004,1.477459445595741E-004,8.136874437332153E-001,-5.646983981132507E-001,
4.730000000000000E+009,2.856344282627106E-001,-9.315306544303894E-001,-1.692147088760976E-005,2.353456366108730E-004,-5.706618685508147E-005,2.322277723578736E-004,7.727171182632446E-001,-6.192275285720825E-001,
4.777000000000000E+009,1.255015730857849E-001,-9.610230326652527E-001,5.107471224619076E-005,1.678117696428672E-004,5.615338886855170E-005,1.527285639895126E-004,7.272781133651733E-001,-6.713539958000183E-001,
4.824000000000000E+009,-6.674509495496750E-003,-9.726373553276062E-001,-2.933531686721835E-005,1.243269507540390E-004,-5.452030745800585E-005,1.556083152536303E-004,6.807434558868408E-001,-7.197706699371338E-001,
