% Version 1.00
%
%freq[Hz],re:Trc1_S11,im:Trc1_S11,re:Trc2_S21,im:Trc2_S21,re:Trc3_S11,im:Trc3_S11,re:Trc4_S21,im:Trc4_S21,
6.900000000000000E+008,-1.778163015842438E-002,6.064891815185547E-002,-4.993164539337158E-001,-8.491567969322205E-001,-1.778163015842438E-002,6.064891815185547E-002,-4.993164539337158E-001,-8.491567969322205E-001,
6.983666666666666E+008,-7.005383260548115E-003,6.153902411460877E-002,-5.223860740661621E-001,-8.405736684799194E-001,-7.005383260548115E-003,6.153902411460877E-002,-5.223860740661621E-001,-8.405736684799194E-001,
7.067333333333334E+008,6.003990420140326E-004,5.647912621498108E-002,-5.669890046119690E-001,-7.783071398735046E-001,6.003990420140326E-004,5.647912621498108E-002,-5.669890046119690E-001,-7.783071398735046E-001,
7.151000000000000E+008,2.720043295994401E-003,4.863645881414414E-002,-5.863361358642578E-001,-7.924176454544067E-001,2.720043295994401E-003,4.863645881414414E-002,-5.863361358642578E-001,-7.924176454544067E-001,
7.234666666666666E+008,7.924803649075329E-004,4.298159852623940E-002,-5.979806780815125E-001,-7.807009816169739E-001,7.924803649075329E-004,4.298159852623940E-002,-5.979806780815125E-001,-7.807009816169739E-001,
7.318333333333334E+008,-4.730334039777517E-003,4.027219489216805E-002,-6.131374835968018E-001,-7.783768177032471E-001,-4.730334039777517E-003,4.027219489216805E-002,-6.131374835968018E-001,-7.783768177032471E-001,
7.402000000000000E+008,-1.026057545095682E-002,4.027217626571655E-002,-6.581060290336609E-001,-7.616369128227234E-001,-1.026057545095682E-002,4.027217626571655E-002,-6.581060290336609E-001,-7.616369128227234E-001,
7.485666666666666E+008,-1.583999209105969E-002,4.592532664537430E-002,-6.565995812416077E-001,-7.574152350425720E-001,-1.583999209105969E-002,4.592532664537430E-002,-6.565995812416077E-001,-7.574152350425720E-001,
7.569333333333334E+008,-1.593589968979359E-002,5.337795987725258E-002,-6.653783917427063E-001,-7.362831830978394E-001,-1.593589968979359E-002,5.337795987725258E-002,-6.653783917427063E-001,-7.362831830978394E-001,
7.653000000000000E+008,-9.861721657216549E-003,6.048963963985443E-002,-6.833386421203613E-001,-7.155037522315979E-001,-9.861721657216549E-003,6.048963963985443E-002,-6.833386421203613E-001,-7.155037522315979E-001,
7.736666666666666E+008,-1.920305658131838E-003,6.645388901233673E-002,-7.157250642776489E-001,-6.905130147933960E-001,-1.920305658131838E-003,6.645388901233673E-002,-7.157250642776489E-001,-6.905130147933960E-001,
7.820333333333334E+008,8.483630605041981E-003,6.868791580200195E-002,-7.269551157951355E-001,-6.774044036865234E-001,8.483630605041981E-003,6.868791580200195E-002,-7.269551157951355E-001,-6.774044036865234E-001,
7.904000000000000E+008,2.017017453908920E-002,6.695824861526489E-002,-7.313336730003357E-001,-6.562405228614807E-001,2.017017453908920E-002,6.695824861526489E-002,-7.313336730003357E-001,-6.562405228614807E-001,
7.987666666666666E+008,2.601240389049053E-002,6.092534586787224E-002,-7.655501961708069E-001,-6.353100538253784E-001,2.601240389049053E-002,6.092534586787224E-002,-7.655501961708069E-001,-6.353100538253784E-001,
8.071333333333334E+008,3.019583970308304E-002,5.494062975049019E-002,-7.706385254859924E-001,-6.239094734191895E-001,3.019583970308304E-002,5.494062975049019E-002,-7.706385254859924E-001,-6.239094734191895E-001,
8.155000000000000E+008,2.570530213415623E-002,4.821365699172020E-002,-7.937930822372437E-001,-6.026381254196167E-001,2.570530213415623E-002,4.821365699172020E-002,-7.937930822372437E-001,-6.026381254196167E-001,
8.238666666666666E+008,2.286949753761292E-002,4.291137680411339E-002,-7.950125932693481E-001,-5.730342864990234E-001,2.286949753761292E-002,4.291137680411339E-002,-7.950125932693481E-001,-5.730342864990234E-001,
8.322333333333334E+008,1.651054434478283E-002,4.270699620246887E-002,-8.168994784355164E-001,-5.535417199134827E-001,1.651054434478283E-002,4.270699620246887E-002,-8.168994784355164E-001,-5.535417199134827E-001,
8.406000000000000E+008,1.180837955325842E-002,4.566100984811783E-002,-8.281607627868652E-001,-5.406126379966736E-001,1.180837955325842E-002,4.566100984811783E-002,-8.281607627868652E-001,-5.406126379966736E-001,
8.489666666666668E+008,9.464375674724579E-003,5.226976424455643E-002,-8.391103148460388E-001,-5.252128243446350E-001,9.464375674724579E-003,5.226976424455643E-002,-8.391103148460388E-001,-5.252128243446350E-001,
8.573333333333334E+008,1.212663017213345E-002,5.926883965730667E-002,-8.564382791519165E-001,-4.842809140682221E-001,1.212663017213345E-002,5.926883965730667E-002,-8.564382791519165E-001,-4.842809140682221E-001,
8.657000000000000E+008,2.216667123138905E-002,6.477239727973938E-002,-8.726592063903809E-001,-4.642422795295715E-001,2.216667123138905E-002,6.477239727973938E-002,-8.726592063903809E-001,-4.642422795295715E-001,
8.740666666666668E+008,3.087493032217026E-002,6.638751924037933E-002,-8.703829050064087E-001,-4.519850015640259E-001,3.087493032217026E-002,6.638751924037933E-002,-8.703829050064087E-001,-4.519850015640259E-001,
8.824333333333334E+008,4.180133342742920E-002,6.468886882066727E-002,-8.876479864120483E-001,-4.367063045501709E-001,4.180133342742920E-002,6.468886882066727E-002,-8.876479864120483E-001,-4.367063045501709E-001,
8.908000000000000E+008,5.163518711924553E-002,5.851241946220398E-002,-8.875991106033325E-001,-4.047951102256775E-001,5.163518711924553E-002,5.851241946220398E-002,-8.875991106033325E-001,-4.047951102256775E-001,
8.991666666666668E+008,5.577587336301804E-002,5.057909339666367E-002,-9.023450016975403E-001,-3.773069381713867E-001,5.577587336301804E-002,5.057909339666367E-002,-9.023450016975403E-001,-3.773069381713867E-001,
9.075333333333334E+008,5.700787156820297E-002,4.250886291265488E-002,-9.319183230400085E-001,-3.582414090633392E-001,5.700787156820297E-002,4.250886291265488E-002,-9.319183230400085E-001,-3.582414090633392E-001,
9.159000000000000E+008,5.456343665719032E-002,3.842075914144516E-002,-9.382082819938660E-001,-3.296779394149780E-001,5.456343665719032E-002,3.842075914144516E-002,-9.382082819938660E-001,-3.296779394149780E-001,
9.242666666666668E+008,4.962747916579247E-002,3.407453745603561E-002,-9.435595273971558E-001,-3.159757852554321E-001,4.962747916579247E-002,3.407453745603561E-002,-9.435595273971558E-001,-3.159757852554321E-001,
9.326333333333334E+008,4.246649146080017E-002,3.392896428704262E-002,-9.643871784210205E-001,-2.920259833335877E-001,4.246649146080017E-002,3.392896428704262E-002,-9.643871784210205E-001,-2.920259833335877E-001,
9.410000000000000E+008,3.928194940090179E-002,3.728085011243820E-002,-9.574746489524841E-001,-2.583234310150147E-001,3.928194940090179E-002,3.728085011243820E-002,-9.574746489524841E-001,-2.583234310150147E-001,
9.493666666666668E+008,3.894877061247826E-002,4.229807481169701E-002,-9.561569094657898E-001,-2.401067465543747E-001,3.894877061247826E-002,4.229807481169701E-002,-9.561569094657898E-001,-2.401067465543747E-001,
9.577333333333334E+008,4.217837005853653E-002,4.932823032140732E-002,-9.721370935440064E-001,-2.159373462200165E-001,4.217837005853653E-002,4.932823032140732E-002,-9.721370935440064E-001,-2.159373462200165E-001,
9.661000000000000E+008,5.187492445111275E-002,5.398277938365936E-002,-9.696254730224609E-001,-1.919215172529221E-001,5.187492445111275E-002,5.398277938365936E-002,-9.696254730224609E-001,-1.919215172529221E-001,
9.744666666666668E+008,6.022537872195244E-002,5.252372846007347E-002,-9.746452569961548E-001,-1.678251326084137E-001,6.022537872195244E-002,5.252372846007347E-002,-9.746452569961548E-001,-1.678251326084137E-001,
9.828333333333334E+008,7.394502311944962E-002,4.750411584973335E-002,-9.771960377693176E-001,-1.467241048812866E-001,7.394502311944962E-002,4.750411584973335E-002,-9.771960377693176E-001,-1.467241048812866E-001,
9.912000000000000E+008,8.170324563980103E-002,3.925307840108872E-002,-9.763864874839783E-001,-1.196632981300354E-001,8.170324563980103E-002,3.925307840108872E-002,-9.763864874839783E-001,-1.196632981300354E-001,
9.995666666666668E+008,8.736091852188110E-002,2.838833816349506E-002,-9.915117025375366E-001,-8.206715434789658E-002,8.736091852188110E-002,2.838833816349506E-002,-9.915117025375366E-001,-8.206715434789658E-002,
1.007933333333333E+009,8.726354688405991E-002,1.756125316023827E-002,-9.892252683639526E-001,-6.752689182758331E-002,8.726354688405991E-002,1.756125316023827E-002,-9.892252683639526E-001,-6.752689182758331E-002,
1.016300000000000E+009,8.109668642282486E-002,1.030637323856354E-002,-9.913478493690491E-001,-4.152929410338402E-002,8.109668642282486E-002,1.030637323856354E-002,-9.913478493690491E-001,-4.152929410338402E-002,
1.024666666666667E+009,7.369033247232437E-002,3.103738883510232E-003,-9.906570911407471E-001,-9.105519391596317E-003,7.369033247232437E-002,3.103738883510232E-003,-9.906570911407471E-001,-9.105519391596317E-003,
1.033033333333333E+009,6.645020097494125E-002,4.700023680925369E-003,-9.904535412788391E-001,9.792526252567768E-003,6.645020097494125E-002,4.700023680925369E-003,-9.904535412788391E-001,9.792526252567768E-003,
1.041400000000000E+009,6.027096509933472E-002,9.298989549279213E-003,-9.764043092727661E-001,4.826398566365242E-002,6.027096509933472E-002,9.298989549279213E-003,-9.764043092727661E-001,4.826398566365242E-002,
1.049766666666667E+009,5.958683043718338E-002,1.566623151302338E-002,-9.886815547943115E-001,6.821919977664948E-002,5.958683043718338E-002,1.566623151302338E-002,-9.886815547943115E-001,6.821919977664948E-002,
1.058133333333333E+009,6.501603126525879E-002,2.034462802112103E-002,-9.823260307312012E-001,8.685909956693649E-002,6.501603126525879E-002,2.034462802112103E-002,-9.823260307312012E-001,8.685909956693649E-002,
1.066500000000000E+009,7.568619400262833E-002,2.162237837910652E-002,-9.886791110038757E-001,1.263090670108795E-001,7.568619400262833E-002,2.162237837910652E-002,-9.886791110038757E-001,1.263090670108795E-001,
1.074866666666667E+009,8.565867692232132E-002,1.806721277534962E-002,-9.707368016242981E-001,1.433126330375671E-001,8.565867692232132E-002,1.806721277534962E-002,-9.707368016242981E-001,1.433126330375671E-001,
1.083233333333334E+009,9.580431133508682E-002,4.530680831521750E-003,-9.686262011528015E-001,1.648662835359573E-001,9.580431133508682E-002,4.530680831521750E-003,-9.686262011528015E-001,1.648662835359573E-001,
1.091600000000000E+009,1.013001948595047E-001,-7.362054195255041E-003,-9.592115283012390E-001,1.863376647233963E-001,1.013001948595047E-001,-7.362054195255041E-003,-9.592115283012390E-001,1.863376647233963E-001,
1.099966666666667E+009,1.015641838312149E-001,-2.380608394742012E-002,-9.617257714271545E-001,2.243414968252182E-001,1.015641838312149E-001,-2.380608394742012E-002,-9.617257714271545E-001,2.243414968252182E-001,
1.108333333333334E+009,9.167540818452835E-002,-3.548337891697884E-002,-9.400224089622498E-001,2.275222390890122E-001,9.167540818452835E-002,-3.548337891697884E-002,-9.400224089622498E-001,2.275222390890122E-001,
1.116700000000000E+009,7.676242291927338E-002,-3.656154125928879E-002,-9.402620792388916E-001,2.712933421134949E-001,7.676242291927338E-002,-3.656154125928879E-002,-9.402620792388916E-001,2.712933421134949E-001,
1.125066666666667E+009,6.418491154909134E-002,-3.720113262534142E-002,-9.452991485595703E-001,2.812303900718689E-001,6.418491154909134E-002,-3.720113262534142E-002,-9.452991485595703E-001,2.812303900718689E-001,
1.133433333333334E+009,5.430988967418671E-002,-2.645480819046497E-002,-9.458189606666565E-001,3.066076338291168E-001,5.430988967418671E-002,-2.645480819046497E-002,-9.458189606666565E-001,3.066076338291168E-001,
1.141800000000000E+009,5.256542935967445E-002,-1.628807187080383E-002,-9.186764359474182E-001,3.280682861804962E-001,5.256542935967445E-002,-1.628807187080383E-002,-9.186764359474182E-001,3.280682861804962E-001,
1.150166666666667E+009,5.830723047256470E-002,-3.784235566854477E-003,-9.016460180282593E-001,3.590498268604279E-001,5.830723047256470E-002,-3.784235566854477E-003,-9.016460180282593E-001,3.590498268604279E-001,
1.158533333333334E+009,7.154293358325958E-002,1.312103238888085E-003,-9.037161469459534E-001,3.846123516559601E-001,7.154293358325958E-002,1.312103238888085E-003,-9.037161469459534E-001,3.846123516559601E-001,
1.166900000000000E+009,8.936837315559387E-002,-2.699812874197960E-003,-8.927052617073059E-001,4.186799228191376E-001,8.936837315559387E-002,-2.699812874197960E-003,-8.927052617073059E-001,4.186799228191376E-001,
1.175266666666667E+009,1.020619571208954E-001,-1.692709140479565E-002,-8.814543485641480E-001,4.234923422336578E-001,1.020619571208954E-001,-1.692709140479565E-002,-8.814543485641480E-001,4.234923422336578E-001,
1.183633333333334E+009,1.111183911561966E-001,-3.568004816770554E-002,-8.687028884887695E-001,4.608743488788605E-001,1.111183911561966E-001,-3.568004816770554E-002,-8.687028884887695E-001,4.608743488788605E-001,
1.192000000000000E+009,1.096929982304573E-001,-5.825553089380264E-002,-8.580577969551086E-001,4.672044813632965E-001,1.096929982304573E-001,-5.825553089380264E-002,-8.580577969551086E-001,4.672044813632965E-001,
1.200366666666667E+009,9.680597484111786E-002,-7.482994347810745E-002,-8.484684824943543E-001,4.942651093006134E-001,9.680597484111786E-002,-7.482994347810745E-002,-8.484684824943543E-001,4.942651093006134E-001,
1.208733333333334E+009,7.991173863410950E-002,-8.517248183488846E-002,-8.431409001350403E-001,5.098556876182556E-001,7.991173863410950E-002,-8.517248183488846E-002,-8.431409001350403E-001,5.098556876182556E-001,
1.217100000000000E+009,6.017969176173210E-002,-8.272089064121246E-002,-8.287909626960754E-001,5.302252173423767E-001,6.017969176173210E-002,-8.272089064121246E-002,-8.287909626960754E-001,5.302252173423767E-001,
1.225466666666667E+009,4.720957577228546E-002,-7.518124580383301E-002,-8.045414090156555E-001,5.567972064018250E-001,4.720957577228546E-002,-7.518124580383301E-002,-8.045414090156555E-001,5.567972064018250E-001,
1.233833333333334E+009,3.976071998476982E-002,-5.968607589602470E-002,-7.888629436492920E-001,5.756438970565796E-001,3.976071998476982E-002,-5.968607589602470E-002,-7.888629436492920E-001,5.756438970565796E-001,
1.242200000000000E+009,4.227638989686966E-002,-4.477214813232422E-002,-7.748982310295105E-001,5.900207161903381E-001,4.227638989686966E-002,-4.477214813232422E-002,-7.748982310295105E-001,5.900207161903381E-001,
1.250566666666667E+009,5.535363778471947E-002,-3.736055642366409E-002,-7.474883198738098E-001,6.185107231140137E-001,5.535363778471947E-002,-3.736055642366409E-002,-7.474883198738098E-001,6.185107231140137E-001,
1.258933333333334E+009,7.052617520093918E-002,-3.916687890887260E-002,-7.567330002784729E-001,6.396414041519165E-001,7.052617520093918E-002,-3.916687890887260E-002,-7.567330002784729E-001,6.396414041519165E-001,
1.267300000000000E+009,8.468815684318543E-002,-5.300832912325859E-002,-7.339017391204834E-001,6.518493294715881E-001,8.468815684318543E-002,-5.300832912325859E-002,-7.339017391204834E-001,6.518493294715881E-001,
1.275666666666667E+009,9.185089170932770E-002,-7.358627766370773E-002,-6.992403268814087E-001,6.740843653678894E-001,9.185089170932770E-002,-7.358627766370773E-002,-6.992403268814087E-001,6.740843653678894E-001,
1.284033333333334E+009,8.724252879619598E-002,-9.698742628097534E-002,-6.910951733589172E-001,6.920603513717651E-001,8.724252879619598E-002,-9.698742628097534E-002,-6.910951733589172E-001,6.920603513717651E-001,
1.292400000000000E+009,7.262849807739258E-002,-1.161766946315765E-001,-6.790873408317566E-001,7.063924074172974E-001,7.262849807739258E-002,-1.161766946315765E-001,-6.790873408317566E-001,7.063924074172974E-001,
1.300766666666667E+009,5.209306254982948E-002,-1.246013194322586E-001,-6.562207341194153E-001,7.207800745964050E-001,5.209306254982948E-002,-1.246013194322586E-001,-6.562207341194153E-001,7.207800745964050E-001,
1.309133333333334E+009,2.791315689682961E-002,-1.229668706655502E-001,-6.454811692237854E-001,7.373654842376709E-001,2.791315689682961E-002,-1.229668706655502E-001,-6.454811692237854E-001,7.373654842376709E-001,
1.317500000000000E+009,1.290318556129932E-002,-1.121448203921318E-001,-6.221169233322144E-001,7.513166666030884E-001,1.290318556129932E-002,-1.121448203921318E-001,-6.221169233322144E-001,7.513166666030884E-001,
1.325866666666667E+009,5.281430669128895E-003,-9.300980716943741E-002,-6.076700091362000E-001,7.667172551155090E-001,5.281430669128895E-003,-9.300980716943741E-002,-6.076700091362000E-001,7.667172551155090E-001,
1.334233333333334E+009,9.670758619904518E-003,-7.667631655931473E-002,-5.795484185218811E-001,7.882604598999023E-001,9.670758619904518E-003,-7.667631655931473E-002,-5.795484185218811E-001,7.882604598999023E-001,
1.342600000000000E+009,2.056214027106762E-002,-6.909695267677307E-002,-5.598400831222534E-001,8.077741861343384E-001,2.056214027106762E-002,-6.909695267677307E-002,-5.598400831222534E-001,8.077741861343384E-001,
1.350966666666667E+009,3.547950088977814E-002,-7.200752198696137E-002,-5.285674929618835E-001,8.321760892868042E-001,3.547950088977814E-002,-7.200752198696137E-002,-5.285674929618835E-001,8.321760892868042E-001,
1.359333333333334E+009,4.790668562054634E-002,-8.534360677003861E-002,-5.159978866577148E-001,8.341726064682007E-001,4.790668562054634E-002,-8.534360677003861E-002,-5.159978866577148E-001,8.341726064682007E-001,
1.367700000000000E+009,4.618825018405914E-002,-1.063630506396294E-001,-4.970163404941559E-001,8.419920206069946E-001,4.618825018405914E-002,-1.063630506396294E-001,-4.970163404941559E-001,8.419920206069946E-001,
1.376066666666667E+009,3.722895681858063E-002,-1.254803836345673E-001,-4.808878004550934E-001,8.567139506340027E-001,3.722895681858063E-002,-1.254803836345673E-001,-4.808878004550934E-001,8.567139506340027E-001,
1.384433333333334E+009,1.648428849875927E-002,-1.424039453268051E-001,-4.554809927940369E-001,8.762324452400208E-001,1.648428849875927E-002,-1.424039453268051E-001,-4.554809927940369E-001,8.762324452400208E-001,
1.392800000000000E+009,-8.373294956982136E-003,-1.451296210289002E-001,-4.424832165241242E-001,8.693738579750061E-001,-8.373294956982136E-003,-1.451296210289002E-001,-4.424832165241242E-001,8.693738579750061E-001,
1.401166666666667E+009,-3.125961497426033E-002,-1.363908946514130E-001,-4.201658368110657E-001,8.873077034950256E-001,-3.125961497426033E-002,-1.363908946514130E-001,-4.201658368110657E-001,8.873077034950256E-001,
1.409533333333334E+009,-4.675086960196495E-002,-1.188329532742500E-001,-3.903937935829163E-001,8.984843492507935E-001,-4.675086960196495E-002,-1.188329532742500E-001,-3.903937935829163E-001,8.984843492507935E-001,
1.417900000000000E+009,-5.081600323319435E-002,-9.426899254322052E-002,-3.787345290184021E-001,8.940066099166870E-001,-5.081600323319435E-002,-9.426899254322052E-002,-3.787345290184021E-001,8.940066099166870E-001,
1.426266666666667E+009,-4.236085712909699E-002,-7.712861895561218E-002,-3.467835485935211E-001,9.203986525535584E-001,-4.236085712909699E-002,-7.712861895561218E-002,-3.467835485935211E-001,9.203986525535584E-001,
1.434633333333334E+009,-2.617678791284561E-002,-6.641066819429398E-002,-3.131039440631867E-001,9.305943250656128E-001,-2.617678791284561E-002,-6.641066819429398E-002,-3.131039440631867E-001,9.305943250656128E-001,
1.443000000000000E+009,-9.530883282423019E-003,-6.762368232011795E-002,-2.955444157123566E-001,9.357471466064453E-001,-9.530883282423019E-003,-6.762368232011795E-002,-2.955444157123566E-001,9.357471466064453E-001,
1.451366666666667E+009,2.992734080180526E-003,-7.981086522340775E-002,-2.621778547763825E-001,9.383720755577087E-001,2.992734080180526E-003,-7.981086522340775E-002,-2.621778547763825E-001,9.383720755577087E-001,
1.459733333333334E+009,5.969165824353695E-003,-1.015601009130478E-001,-2.444670796394348E-001,9.417632222175598E-001,5.969165824353695E-003,-1.015601009130478E-001,-2.444670796394348E-001,9.417632222175598E-001,
