% Version 1.00
%
%freq[Hz],re:Trc1_S11,im:Trc1_S11,re:Trc2_S21,im:Trc2_S21,re:Trc3_S11,im:Trc3_S11,re:Trc4_S21,im:Trc4_S21,
6.900000000000000E+008,-2.588348463177681E-002,5.072046816349030E-002,-4.935858547687531E-001,-8.528613448143005E-001,-2.588348463177681E-002,5.072046816349030E-002,-4.935858547687531E-001,-8.528613448143005E-001,
6.983666666666666E+008,-1.562611386179924E-002,5.174639075994492E-002,-5.171855092048645E-001,-8.448011279106140E-001,-1.562611386179924E-002,5.174639075994492E-002,-5.171855092048645E-001,-8.448011279106140E-001,
7.067333333333334E+008,-8.510972373187542E-003,4.681061953306198E-002,-5.621001720428467E-001,-7.829396724700928E-001,-8.510972373187542E-003,4.681061953306198E-002,-5.621001720428467E-001,-7.829396724700928E-001,
7.151000000000000E+008,-7.013696245849133E-003,3.926768153905869E-002,-5.812516808509827E-001,-7.969812154769898E-001,-7.013696245849133E-003,3.926768153905869E-002,-5.812516808509827E-001,-7.969812154769898E-001,
7.234666666666666E+008,-9.481782093644142E-003,3.392298892140389E-002,-5.931071639060974E-001,-7.855080962181091E-001,-9.481782093644142E-003,3.392298892140389E-002,-5.931071639060974E-001,-7.855080962181091E-001,
7.318333333333334E+008,-1.565135084092617E-002,3.158020228147507E-002,-6.083425879478455E-001,-7.831980586051941E-001,-1.565135084092617E-002,3.158020228147507E-002,-6.083425879478455E-001,-7.831980586051941E-001,
7.402000000000000E+008,-2.157746255397797E-002,3.189953044056892E-002,-6.530565023422241E-001,-7.666131854057312E-001,-2.157746255397797E-002,3.189953044056892E-002,-6.530565023422241E-001,-7.666131854057312E-001,
7.485666666666666E+008,-2.775182388722897E-002,3.796013817191124E-002,-6.517217755317688E-001,-7.626835107803345E-001,-2.775182388722897E-002,3.796013817191124E-002,-6.517217755317688E-001,-7.626835107803345E-001,
7.569333333333334E+008,-2.838749252259731E-002,4.578448832035065E-002,-6.598068475723267E-001,-7.418099045753479E-001,-2.838749252259731E-002,4.578448832035065E-002,-6.598068475723267E-001,-7.418099045753479E-001,
7.653000000000000E+008,-2.284983359277248E-002,5.332697927951813E-002,-6.781111359596252E-001,-7.218755483627319E-001,-2.284983359277248E-002,5.332697927951813E-002,-6.781111359596252E-001,-7.218755483627319E-001,
7.736666666666666E+008,-1.535417698323727E-002,5.960025638341904E-002,-7.109556198120117E-001,-6.958825588226318E-001,-1.535417698323727E-002,5.960025638341904E-002,-7.109556198120117E-001,-6.958825588226318E-001,
7.820333333333334E+008,-5.430189426988363E-003,6.229689717292786E-002,-7.222844362258911E-001,-6.834669113159180E-001,-5.430189426988363E-003,6.229689717292786E-002,-7.222844362258911E-001,-6.834669113159180E-001,
7.904000000000000E+008,5.696637555956841E-003,6.112714111804962E-002,-7.270877361297607E-001,-6.625567674636841E-001,5.696637555956841E-003,6.112714111804962E-002,-7.270877361297607E-001,-6.625567674636841E-001,
7.987666666666666E+008,1.122716721147299E-002,5.553482845425606E-002,-7.616383433341980E-001,-6.415598988533020E-001,1.122716721147299E-002,5.553482845425606E-002,-7.616383433341980E-001,-6.415598988533020E-001,
8.071333333333334E+008,1.497118268162012E-002,5.017977580428124E-002,-7.665476202964783E-001,-6.306119561195374E-001,1.497118268162012E-002,5.017977580428124E-002,-7.665476202964783E-001,-6.306119561195374E-001,
8.155000000000000E+008,1.005097851157188E-002,4.384520649909973E-002,-7.897579669952393E-001,-6.093798875808716E-001,1.005097851157188E-002,4.384520649909973E-002,-7.897579669952393E-001,-6.093798875808716E-001,
8.238666666666666E+008,6.990727502852678E-003,3.937721624970436E-002,-7.915399074554443E-001,-5.797844529151917E-001,6.990727502852678E-003,3.937721624970436E-002,-7.915399074554443E-001,-5.797844529151917E-001,
8.322333333333334E+008,2.694401773624122E-004,3.967346623539925E-002,-8.130920529365540E-001,-5.605101585388184E-001,2.694401773624122E-004,3.967346623539925E-002,-8.130920529365540E-001,-5.605101585388184E-001,
8.406000000000000E+008,-4.820961039513350E-003,4.336157068610191E-002,-8.244509100914002E-001,-5.479165315628052E-001,-4.820961039513350E-003,4.336157068610191E-002,-8.244509100914002E-001,-5.479165315628052E-001,
8.489666666666668E+008,-7.696519605815411E-003,5.041990056633949E-002,-8.352468013763428E-001,-5.325552225112915E-001,-7.696519605815411E-003,5.041990056633949E-002,-8.352468013763428E-001,-5.325552225112915E-001,
8.573333333333334E+008,-5.284960847347975E-003,5.793245509266853E-002,-8.526208400726318E-001,-4.914214015007019E-001,-5.284960847347975E-003,5.793245509266853E-002,-8.526208400726318E-001,-4.914214015007019E-001,
8.657000000000000E+008,4.153361078351736E-003,6.447575986385346E-002,-8.695560693740845E-001,-4.716517031192780E-001,4.153361078351736E-003,6.447575986385346E-002,-8.695560693740845E-001,-4.716517031192780E-001,
8.740666666666668E+008,1.265145093202591E-002,6.678402423858643E-002,-8.671376109123230E-001,-4.595220685005188E-001,1.265145093202591E-002,6.678402423858643E-002,-8.671376109123230E-001,-4.595220685005188E-001,
8.824333333333334E+008,2.339760586619377E-002,6.591787934303284E-002,-8.849293589591980E-001,-4.449669420719147E-001,2.339760586619377E-002,6.591787934303284E-002,-8.849293589591980E-001,-4.449669420719147E-001,
8.908000000000000E+008,3.315865248441696E-002,6.066790223121643E-002,-8.854417800903320E-001,-4.127087295055389E-001,3.315865248441696E-002,6.066790223121643E-002,-8.854417800903320E-001,-4.127087295055389E-001,
8.991666666666668E+008,3.734901547431946E-002,5.346863716840744E-002,-9.001656770706177E-001,-3.855691850185394E-001,3.734901547431946E-002,5.346863716840744E-002,-9.001656770706177E-001,-3.855691850185394E-001,
9.075333333333334E+008,3.840863332152367E-002,4.637700691819191E-002,-9.306817650794983E-001,-3.669764101505280E-001,3.840863332152367E-002,4.637700691819191E-002,-9.306817650794983E-001,-3.669764101505280E-001,
9.159000000000000E+008,3.600894287228584E-002,4.316217452287674E-002,-9.363408684730530E-001,-3.385596275329590E-001,3.600894287228584E-002,4.316217452287674E-002,-9.363408684730530E-001,-3.385596275329590E-001,
9.242666666666668E+008,3.120809979736805E-002,3.947001695632935E-002,-9.418984055519104E-001,-3.243767619132996E-001,3.120809979736805E-002,3.947001695632935E-002,-9.418984055519104E-001,-3.243767619132996E-001,
9.326333333333334E+008,2.403216809034348E-002,3.997120633721352E-002,-9.633693099021912E-001,-3.006170094013214E-001,2.403216809034348E-002,3.997120633721352E-002,-9.633693099021912E-001,-3.006170094013214E-001,
9.410000000000000E+008,2.075321599841118E-002,4.402153566479683E-002,-9.566271305084229E-001,-2.672427296638489E-001,2.075321599841118E-002,4.402153566479683E-002,-9.566271305084229E-001,-2.672427296638489E-001,
9.493666666666668E+008,2.028891257941723E-002,4.984863847494125E-002,-9.549135565757752E-001,-2.488799244165421E-001,2.028891257941723E-002,4.984863847494125E-002,-9.549135565757752E-001,-2.488799244165421E-001,
9.577333333333334E+008,2.344941161572933E-002,5.766821652650833E-002,-9.712354540824890E-001,-2.255080193281174E-001,2.344941161572933E-002,5.766821652650833E-002,-9.712354540824890E-001,-2.255080193281174E-001,
9.661000000000000E+008,3.298046067357063E-002,6.357896327972412E-002,-9.690786004066467E-001,-2.013857960700989E-001,3.298046067357063E-002,6.357896327972412E-002,-9.690786004066467E-001,-2.013857960700989E-001,
9.744666666666668E+008,4.166085273027420E-002,6.296278536319733E-002,-9.747143387794495E-001,-1.771946996450424E-001,4.166085273027420E-002,6.296278536319733E-002,-9.747143387794495E-001,-1.771946996450424E-001,
9.828333333333334E+008,5.555349588394165E-002,5.915873125195503E-002,-9.768549799919128E-001,-1.565171331167221E-001,5.555349588394165E-002,5.915873125195503E-002,-9.768549799919128E-001,-1.565171331167221E-001,
9.912000000000000E+008,6.359316408634186E-002,5.192277207970619E-002,-9.766063094139099E-001,-1.292236447334290E-001,6.359316408634186E-002,5.192277207970619E-002,-9.766063094139099E-001,-1.292236447334290E-001,
9.995666666666668E+008,6.993120908737183E-002,4.201697185635567E-002,-9.921880364418030E-001,-9.222539514303207E-002,6.993120908737183E-002,4.201697185635567E-002,-9.921880364418030E-001,-9.222539514303207E-002,
1.007933333333333E+009,7.022205740213394E-002,3.208546712994576E-002,-9.909102320671082E-001,-7.735539972782135E-002,7.022205740213394E-002,3.208546712994576E-002,-9.909102320671082E-001,-7.735539972782135E-002,
1.016300000000000E+009,6.457850337028503E-002,2.550797723233700E-002,-9.926005005836487E-001,-5.114243552088738E-002,6.457850337028503E-002,2.550797723233700E-002,-9.926005005836487E-001,-5.114243552088738E-002,
1.024666666666667E+009,5.753491446375847E-002,1.887900009751320E-002,-9.926092624664307E-001,-1.858303509652615E-002,5.753491446375847E-002,1.887900009751320E-002,-9.926092624664307E-001,-1.858303509652615E-002,
1.033033333333333E+009,5.074480548501015E-002,2.107585966587067E-002,-9.924154281616211E-001,3.086644574068487E-004,5.074480548501015E-002,2.107585966587067E-002,-9.924154281616211E-001,3.086644574068487E-004,
1.041400000000000E+009,4.485351964831352E-002,2.631554566323757E-002,-9.783834218978882E-001,3.870625048875809E-002,4.485351964831352E-002,2.631554566323757E-002,-9.783834218978882E-001,3.870625048875809E-002,
1.049766666666667E+009,4.448200017213821E-002,3.359167650341988E-002,-9.908522963523865E-001,5.857244506478310E-002,4.448200017213821E-002,3.359167650341988E-002,-9.908522963523865E-001,5.857244506478310E-002,
1.058133333333333E+009,5.029089748859406E-002,3.918463736772537E-002,-9.848150014877319E-001,7.690856605768204E-002,5.029089748859406E-002,3.918463736772537E-002,-9.848150014877319E-001,7.690856605768204E-002,
1.066500000000000E+009,6.159910559654236E-002,4.191888496279717E-002,-9.917938113212585E-001,1.157711222767830E-001,6.159910559654236E-002,4.191888496279717E-002,-9.917938113212585E-001,1.157711222767830E-001,
1.074866666666667E+009,7.220743596553803E-002,3.903986886143684E-002,-9.743828177452087E-001,1.329448968172073E-001,7.220743596553803E-002,3.903986886143684E-002,-9.743828177452087E-001,1.329448968172073E-001,
1.083233333333334E+009,8.338282257318497E-002,2.655510976910591E-002,-9.721862077713013E-001,1.546954363584518E-001,8.338282257318497E-002,2.655510976910591E-002,-9.721862077713013E-001,1.546954363584518E-001,
1.091600000000000E+009,8.973342925310135E-002,1.549630053341389E-002,-9.631986618041992E-001,1.757130771875382E-001,8.973342925310135E-002,1.549630053341389E-002,-9.631986618041992E-001,1.757130771875382E-001,
1.099966666666667E+009,9.114278107881546E-002,8.999754209071398E-005,-9.668299555778503E-001,2.139451205730438E-001,9.114278107881546E-002,8.999754209071398E-005,-9.668299555778503E-001,2.139451205730438E-001,
1.108333333333334E+009,8.212239295244217E-002,-1.117907743901014E-002,-9.451420307159424E-001,2.178515642881393E-001,8.212239295244217E-002,-1.117907743901014E-002,-9.451420307159424E-001,2.178515642881393E-001,
1.116700000000000E+009,6.832317262887955E-002,-1.250398531556130E-002,-9.451312422752380E-001,2.623924016952515E-001,6.832317262887955E-002,-1.250398531556130E-002,-9.451312422752380E-001,2.623924016952515E-001,
1.125066666666667E+009,5.604625493288040E-002,-1.247974764555693E-002,-9.503372907638550E-001,2.722361087799072E-001,5.604625493288040E-002,-1.247974764555693E-002,-9.503372907638550E-001,2.722361087799072E-001,
1.133433333333334E+009,4.678428545594215E-002,-1.262557343579829E-003,-9.510470628738403E-001,2.976775765419006E-001,4.678428545594215E-002,-1.262557343579829E-003,-9.510470628738403E-001,2.976775765419006E-001,
1.141800000000000E+009,4.564853012561798E-002,9.431618265807629E-003,-9.230015873908997E-001,3.189222514629364E-001,4.564853012561798E-002,9.431618265807629E-003,-9.230015873908997E-001,3.189222514629364E-001,
1.150166666666667E+009,5.200574174523354E-002,2.286646701395512E-002,-9.069700837135315E-001,3.504057228565216E-001,5.200574174523354E-002,2.286646701395512E-002,-9.069700837135315E-001,3.504057228565216E-001,
1.158533333333334E+009,6.599374115467072E-002,2.877270244061947E-002,-9.088587760925293E-001,3.748071789741516E-001,6.599374115467072E-002,2.877270244061947E-002,-9.088587760925293E-001,3.748071789741516E-001,
1.166900000000000E+009,8.500663191080093E-002,2.592122182250023E-002,-8.991093039512634E-001,4.083524346351624E-001,8.500663191080093E-002,2.592122182250023E-002,-8.991093039512634E-001,4.083524346351624E-001,
1.175266666666667E+009,9.928140044212341E-002,1.222359575331211E-002,-8.879837989807129E-001,4.134116768836975E-001,9.928140044212341E-002,1.222359575331211E-002,-8.879837989807129E-001,4.134116768836975E-001,
1.183633333333334E+009,1.100383773446083E-001,-5.877418909221888E-003,-8.765720725059509E-001,4.510723054409027E-001,1.100383773446083E-001,-5.877418909221888E-003,-8.765720725059509E-001,4.510723054409027E-001,
1.192000000000000E+009,1.101749911904335E-001,-2.817051671445370E-002,-8.661766648292542E-001,4.578786492347717E-001,1.101749911904335E-001,-2.817051671445370E-002,-8.661766648292542E-001,4.578786492347717E-001,
1.200366666666667E+009,9.882513433694840E-002,-4.476772621273994E-002,-8.574588894844055E-001,4.849744439125061E-001,9.882513433694840E-002,-4.476772621273994E-002,-8.574588894844055E-001,4.849744439125061E-001,
1.208733333333334E+009,8.295798301696777E-002,-5.535938218235970E-002,-8.526910543441773E-001,5.015209317207336E-001,8.295798301696777E-002,-5.535938218235970E-002,-8.526910543441773E-001,5.015209317207336E-001,
1.217100000000000E+009,6.427361071109772E-002,-5.304707586765289E-002,-8.376164436340332E-001,5.219337344169617E-001,6.427361071109772E-002,-5.304707586765289E-002,-8.376164436340332E-001,5.219337344169617E-001,
1.225466666666667E+009,5.230800807476044E-002,-4.556011036038399E-002,-8.134749531745911E-001,5.493709444999695E-001,5.230800807476044E-002,-4.556011036038399E-002,-8.134749531745911E-001,5.493709444999695E-001,
1.233833333333334E+009,4.514522850513458E-002,-2.982350066304207E-002,-7.976150512695313E-001,5.684981346130371E-001,4.514522850513458E-002,-2.982350066304207E-002,-7.976150512695313E-001,5.684981346130371E-001,
1.242200000000000E+009,4.844018816947937E-002,-1.429303362965584E-002,-7.835174202919006E-001,5.821877717971802E-001,4.844018816947937E-002,-1.429303362965584E-002,-7.835174202919006E-001,5.821877717971802E-001,
1.250566666666667E+009,6.265655159950256E-002,-6.271687801927328E-003,-7.564862966537476E-001,6.102566719055176E-001,6.265655159950256E-002,-6.271687801927328E-003,-7.564862966537476E-001,6.102566719055176E-001,
1.258933333333334E+009,7.939845323562622E-002,-7.731993217021227E-003,-7.656394839286804E-001,6.307273507118225E-001,7.939845323562622E-002,-7.731993217021227E-003,-7.656394839286804E-001,6.307273507118225E-001,
1.267300000000000E+009,9.556838124990463E-002,-2.139519155025482E-002,-7.440191507339478E-001,6.431970596313477E-001,9.556838124990463E-002,-2.139519155025482E-002,-7.440191507339478E-001,6.431970596313477E-001,
1.275666666666667E+009,1.044292524456978E-001,-4.189088940620422E-002,-7.101335525512695E-001,6.661782860755920E-001,1.044292524456978E-001,-4.189088940620422E-002,-7.101335525512695E-001,6.661782860755920E-001,
1.284033333333334E+009,1.019611358642578E-001,-6.574229896068573E-002,-7.030506134033203E-001,6.843935847282410E-001,1.019611358642578E-001,-6.574229896068573E-002,-7.030506134033203E-001,6.843935847282410E-001,
1.292400000000000E+009,8.919516205787659E-002,-8.554078638553619E-002,-6.912459135055542E-001,6.991796493530273E-001,8.919516205787659E-002,-8.554078638553619E-002,-6.912459135055542E-001,6.991796493530273E-001,
1.300766666666667E+009,6.964846700429916E-002,-9.478899091482163E-002,-6.688324809074402E-001,7.144134640693665E-001,6.964846700429916E-002,-9.478899091482163E-002,-6.688324809074402E-001,7.144134640693665E-001,
1.309133333333334E+009,4.665847495198250E-002,-9.418478608131409E-002,-6.579855084419251E-001,7.312271595001221E-001,4.665847495198250E-002,-9.418478608131409E-002,-6.579855084419251E-001,7.312271595001221E-001,
1.317500000000000E+009,3.253227472305298E-002,-8.344851434230804E-002,-6.342599987983704E-001,7.465347647666931E-001,3.253227472305298E-002,-8.344851434230804E-002,-6.342599987983704E-001,7.465347647666931E-001,
1.325866666666667E+009,2.550508268177509E-002,-6.482409685850143E-002,-6.193000674247742E-001,7.618887424468994E-001,2.550508268177509E-002,-6.482409685850143E-002,-6.193000674247742E-001,7.618887424468994E-001,
1.334233333333334E+009,3.068372048437595E-002,-4.857436195015907E-002,-5.913653373718262E-001,7.834467291831970E-001,3.068372048437595E-002,-4.857436195015907E-002,-5.913653373718262E-001,7.834467291831970E-001,
1.342600000000000E+009,4.278612881898880E-002,-4.104381427168846E-002,-5.720123648643494E-001,8.021670579910278E-001,4.278612881898880E-002,-4.104381427168846E-002,-5.720123648643494E-001,8.021670579910278E-001,
1.350966666666667E+009,5.919069051742554E-002,-4.401629418134689E-002,-5.408281087875366E-001,8.261601328849793E-001,5.919069051742554E-002,-4.401629418134689E-002,-5.408281087875366E-001,8.261601328849793E-001,
1.359333333333334E+009,7.335309684276581E-002,-5.731569230556488E-002,-5.292087197303772E-001,8.283630609512329E-001,7.335309684276581E-002,-5.731569230556488E-002,-5.292087197303772E-001,8.283630609512329E-001,
1.367700000000000E+009,7.343551516532898E-002,-7.954526692628861E-002,-5.111107826232910E-001,8.362715840339661E-001,7.343551516532898E-002,-7.954526692628861E-002,-5.111107826232910E-001,8.362715840339661E-001,
1.376066666666667E+009,6.645604223012924E-002,-9.983140975236893E-002,-4.953854084014893E-001,8.515574336051941E-001,6.645604223012924E-002,-9.983140975236893E-002,-4.953854084014893E-001,8.515574336051941E-001,
1.384433333333334E+009,4.738719761371613E-002,-1.181269884109497E-001,-4.709791541099548E-001,8.725230693817139E-001,4.738719761371613E-002,-1.181269884109497E-001,-4.709791541099548E-001,8.725230693817139E-001,
1.392800000000000E+009,2.376731857657433E-002,-1.223442927002907E-001,-4.577308595180512E-001,8.667378425598145E-001,2.376731857657433E-002,-1.223442927002907E-001,-4.577308595180512E-001,8.667378425598145E-001,
1.401166666666667E+009,1.812946633435786E-003,-1.147742718458176E-001,-4.349236190319061E-001,8.856168389320374E-001,1.812946633435786E-003,-1.147742718458176E-001,-4.349236190319061E-001,8.856168389320374E-001,
1.409533333333334E+009,-1.357733085751534E-002,-9.842757880687714E-002,-4.047088027000427E-001,8.972508907318115E-001,-1.357733085751534E-002,-9.842757880687714E-002,-4.047088027000427E-001,8.972508907318115E-001,
1.417900000000000E+009,-1.713150367140770E-002,-7.442259043455124E-002,-3.920179605484009E-001,8.932695984840393E-001,-1.713150367140770E-002,-7.442259043455124E-002,-3.920179605484009E-001,8.932695984840393E-001,
1.426266666666667E+009,-7.825116626918316E-003,-5.793501809239388E-002,-3.593615293502808E-001,9.192514419555664E-001,-7.825116626918316E-003,-5.793501809239388E-002,-3.593615293502808E-001,9.192514419555664E-001,
1.434633333333334E+009,9.047743864357472E-003,-4.740119352936745E-002,-3.263242542743683E-001,9.291827082633972E-001,9.047743864357472E-003,-4.740119352936745E-002,-3.263242542743683E-001,9.291827082633972E-001,
1.443000000000000E+009,2.694156952202320E-002,-4.943808168172836E-002,-3.086252212524414E-001,9.340240955352783E-001,2.694156952202320E-002,-4.943808168172836E-002,-3.086252212524414E-001,9.340240955352783E-001,
1.451366666666667E+009,4.073369875550270E-002,-6.243542954325676E-002,-2.764927744865418E-001,9.369018673896790E-001,4.073369875550270E-002,-6.243542954325676E-002,-2.764927744865418E-001,9.369018673896790E-001,
1.459733333333334E+009,4.549111798405647E-002,-8.557263016700745E-002,-2.591910660266876E-001,9.398106932640076E-001,4.549111798405647E-002,-8.557263016700745E-002,-2.591910660266876E-001,9.398106932640076E-001,
