% Version 1.00
%
%freq[Hz],re:Trc1_S11,im:Trc1_S11,re:Trc2_S21,im:Trc2_S21,re:Trc3_S11,im:Trc3_S11,re:Trc4_S21,im:Trc4_S21,
6.900000000000000E+008,-3.702279552817345E-002,6.192777305841446E-002,-5.053868889808655E-001,-8.453339934349060E-001,-3.702279552817345E-002,6.192777305841446E-002,-5.053868889808655E-001,-8.453339934349060E-001,
6.983666666666666E+008,-2.659479714930058E-002,6.325084716081619E-002,-5.283937454223633E-001,-8.361472487449646E-001,-2.659479714930058E-002,6.325084716081619E-002,-5.283937454223633E-001,-8.361472487449646E-001,
7.067333333333334E+008,-1.931513100862503E-002,5.871969833970070E-002,-5.727447867393494E-001,-7.741823196411133E-001,-1.931513100862503E-002,5.871969833970070E-002,-5.727447867393494E-001,-7.741823196411133E-001,
7.151000000000000E+008,-1.735067367553711E-002,5.186304077506065E-002,-5.921217799186707E-001,-7.874952554702759E-001,-1.735067367553711E-002,5.186304077506065E-002,-5.921217799186707E-001,-7.874952554702759E-001,
7.234666666666666E+008,-1.941334269940853E-002,4.712163284420967E-002,-6.037817597389221E-001,-7.756069898605347E-001,-1.941334269940853E-002,4.712163284420967E-002,-6.037817597389221E-001,-7.756069898605347E-001,
7.318333333333334E+008,-2.513909526169300E-002,4.550862312316895E-002,-6.192786097526550E-001,-7.732467651367188E-001,-2.513909526169300E-002,4.550862312316895E-002,-6.192786097526550E-001,-7.732467651367188E-001,
7.402000000000000E+008,-3.073492832481861E-002,4.632056131958962E-002,-6.637452840805054E-001,-7.552024126052856E-001,-3.073492832481861E-002,4.632056131958962E-002,-6.637452840805054E-001,-7.552024126052856E-001,
7.485666666666666E+008,-3.656311705708504E-002,5.298785120248795E-002,-6.623111963272095E-001,-7.510011792182922E-001,-3.656311705708504E-002,5.298785120248795E-002,-6.623111963272095E-001,-7.510011792182922E-001,
7.569333333333334E+008,-3.690204769372940E-002,6.132566556334496E-002,-6.701615452766419E-001,-7.301669716835022E-001,-3.690204769372940E-002,6.132566556334496E-002,-6.701615452766419E-001,-7.301669716835022E-001,
7.653000000000000E+008,-3.101659752428532E-002,6.924884766340256E-002,-6.877488493919373E-001,-7.095516324043274E-001,-3.101659752428532E-002,6.924884766340256E-002,-6.877488493919373E-001,-7.095516324043274E-001,
7.736666666666666E+008,-2.349162474274635E-002,7.555502653121948E-002,-7.201282382011414E-001,-6.836245059967041E-001,-2.349162474274635E-002,7.555502653121948E-002,-7.201282382011414E-001,-6.836245059967041E-001,
7.820333333333334E+008,-1.331768650561571E-002,7.850795239210129E-002,-7.315964698791504E-001,-6.705701947212219E-001,-1.331768650561571E-002,7.850795239210129E-002,-7.315964698791504E-001,-6.705701947212219E-001,
7.904000000000000E+008,-1.878521870821714E-003,7.758038491010666E-002,-7.356840968132019E-001,-6.494958996772766E-001,-1.878521870821714E-003,7.758038491010666E-002,-7.356840968132019E-001,-6.494958996772766E-001,
7.987666666666666E+008,3.943534567952156E-003,7.217130064964294E-002,-7.699952125549316E-001,-6.284120082855225E-001,3.943534567952156E-003,7.217130064964294E-002,-7.699952125549316E-001,-6.284120082855225E-001,
8.071333333333334E+008,8.216976188123226E-003,6.720560044050217E-002,-7.751068472862244E-001,-6.170529127120972E-001,8.216976188123226E-003,6.720560044050217E-002,-7.751068472862244E-001,-6.170529127120972E-001,
8.155000000000000E+008,3.638483118265867E-003,6.134802848100662E-002,-7.982487678527832E-001,-5.948150753974915E-001,3.638483118265867E-003,6.134802848100662E-002,-7.982487678527832E-001,-5.948150753974915E-001,
8.238666666666666E+008,1.339255017228425E-003,5.752795934677124E-002,-7.994366884231567E-001,-5.654177069664002E-001,1.339255017228425E-003,5.752795934677124E-002,-7.994366884231567E-001,-5.654177069664002E-001,
8.322333333333334E+008,-4.686112049967051E-003,5.852470174431801E-002,-8.208009004592896E-001,-5.454932451248169E-001,-4.686112049967051E-003,5.852470174431801E-002,-8.208009004592896E-001,-5.454932451248169E-001,
8.406000000000000E+008,-8.905189111828804E-003,6.263131648302078E-002,-8.319358825683594E-001,-5.320317745208740E-001,-8.905189111828804E-003,6.263131648302078E-002,-8.319358825683594E-001,-5.320317745208740E-001,
8.489666666666668E+008,-1.142491959035397E-002,7.036626338958740E-002,-8.425019383430481E-001,-5.166382193565369E-001,-1.142491959035397E-002,7.036626338958740E-002,-8.425019383430481E-001,-5.166382193565369E-001,
8.573333333333334E+008,-8.541747927665710E-003,7.805051654577255E-002,-8.591365218162537E-001,-4.754213988780975E-001,-8.541747927665710E-003,7.805051654577255E-002,-8.591365218162537E-001,-4.754213988780975E-001,
8.657000000000000E+008,1.775384880602360E-003,8.512183278799057E-002,-8.749942779541016E-001,-4.550227820873261E-001,1.775384880602360E-003,8.512183278799057E-002,-8.749942779541016E-001,-4.550227820873261E-001,
8.740666666666668E+008,1.064051873981953E-002,8.734924346208572E-002,-8.731869459152222E-001,-4.429848492145538E-001,1.064051873981953E-002,8.734924346208572E-002,-8.731869459152222E-001,-4.429848492145538E-001,
8.824333333333334E+008,2.157185599207878E-002,8.630576729774475E-002,-8.899635076522827E-001,-4.276801943778992E-001,2.157185599207878E-002,8.630576729774475E-002,-8.899635076522827E-001,-4.276801943778992E-001,
8.908000000000000E+008,3.176428750157356E-002,8.094404637813568E-002,-8.899896144866943E-001,-3.960710763931274E-001,3.176428750157356E-002,8.094404637813568E-002,-8.899896144866943E-001,-3.960710763931274E-001,
8.991666666666668E+008,3.624261915683746E-002,7.358639687299728E-002,-9.048139452934265E-001,-3.684373497962952E-001,3.624261915683746E-002,7.358639687299728E-002,-9.048139452934265E-001,-3.684373497962952E-001,
9.075333333333334E+008,3.787392377853394E-002,6.689833849668503E-002,-9.346586465835571E-001,-3.489723503589630E-001,3.787392377853394E-002,6.689833849668503E-002,-9.346586465835571E-001,-3.489723503589630E-001,
9.159000000000000E+008,3.624936565756798E-002,6.410571187734604E-002,-9.407910108566284E-001,-3.208809494972229E-001,3.624936565756798E-002,6.410571187734604E-002,-9.407910108566284E-001,-3.208809494972229E-001,
9.242666666666668E+008,3.216348960995674E-002,6.085657328367233E-002,-9.455265998840332E-001,-3.064076006412506E-001,3.216348960995674E-002,6.085657328367233E-002,-9.455265998840332E-001,-3.064076006412506E-001,
9.326333333333334E+008,2.578581683337688E-002,6.188798323273659E-002,-9.662806987762451E-001,-2.820875346660614E-001,2.578581683337688E-002,6.188798323273659E-002,-9.662806987762451E-001,-2.820875346660614E-001,
9.410000000000000E+008,2.345820702612400E-002,6.639932841062546E-002,-9.589868783950806E-001,-2.480849176645279E-001,2.345820702612400E-002,6.639932841062546E-002,-9.589868783950806E-001,-2.480849176645279E-001,
9.493666666666668E+008,2.401003614068031E-002,7.257209718227387E-002,-9.566761255264282E-001,-2.298727631568909E-001,2.401003614068031E-002,7.257209718227387E-002,-9.566761255264282E-001,-2.298727631568909E-001,
9.577333333333334E+008,2.794740162789822E-002,8.044136315584183E-002,-9.726714491844177E-001,-2.062388211488724E-001,2.794740162789822E-002,8.044136315584183E-002,-9.726714491844177E-001,-2.062388211488724E-001,
9.661000000000000E+008,3.837195038795471E-002,8.652357012033463E-002,-9.694974422454834E-001,-1.821338087320328E-001,3.837195038795471E-002,8.652357012033463E-002,-9.694974422454834E-001,-1.821338087320328E-001,
9.744666666666668E+008,4.739630967378616E-002,8.530782908201218E-002,-9.741201996803284E-001,-1.576061993837357E-001,4.739630967378616E-002,8.530782908201218E-002,-9.741201996803284E-001,-1.576061993837357E-001,
9.828333333333334E+008,6.168350577354431E-002,8.107518404722214E-002,-9.765470027923584E-001,-1.366299241781235E-001,6.168350577354431E-002,8.107518404722214E-002,-9.765470027923584E-001,-1.366299241781235E-001,
9.912000000000000E+008,6.994526088237763E-002,7.363929599523544E-002,-9.758527278900147E-001,-1.097070723772049E-001,6.994526088237763E-002,7.363929599523544E-002,-9.758527278900147E-001,-1.097070723772049E-001,
9.995666666666668E+008,7.684885710477829E-002,6.325058639049530E-002,-9.907749295234680E-001,-7.174876332283020E-002,7.684885710477829E-002,6.325058639049530E-002,-9.907749295234680E-001,-7.174876332283020E-002,
1.007933333333333E+009,7.774789631366730E-002,5.353945121169090E-002,-9.889579415321350E-001,-5.714722722768784E-002,7.774789631366730E-002,5.353945121169090E-002,-9.889579415321350E-001,-5.714722722768784E-002,
1.016300000000000E+009,7.295840978622437E-002,4.719533026218414E-002,-9.902504682540894E-001,-3.091889247298241E-002,7.295840978622437E-002,4.719533026218414E-002,-9.902504682540894E-001,-3.091889247298241E-002,
1.024666666666667E+009,6.687750667333603E-002,4.096143692731857E-002,-9.894548058509827E-001,2.455537905916572E-003,6.687750667333603E-002,4.096143692731857E-002,-9.894548058509827E-001,2.455537905916572E-003,
1.033033333333333E+009,6.122738867998123E-002,4.334061965346336E-002,-9.886827468872070E-001,2.164033614099026E-002,6.122738867998123E-002,4.334061965346336E-002,-9.886827468872070E-001,2.164033614099026E-002,
1.041400000000000E+009,5.648542568087578E-002,4.862341657280922E-002,-9.733886718750000E-001,6.005486473441124E-002,5.648542568087578E-002,4.862341657280922E-002,-9.733886718750000E-001,6.005486473441124E-002,
1.049766666666667E+009,5.732208862900734E-002,5.581191554665566E-002,-9.854514002799988E-001,7.935473322868347E-002,5.732208862900734E-002,5.581191554665566E-002,-9.854514002799988E-001,7.935473322868347E-002,
1.058133333333333E+009,6.396696716547012E-002,6.103084981441498E-002,-9.786971211433411E-001,9.833356738090515E-002,6.396696716547012E-002,6.103084981441498E-002,-9.786971211433411E-001,9.833356738090515E-002,
1.066500000000000E+009,7.613204419612885E-002,6.331500411033630E-002,-9.844685196876526E-001,1.370534002780914E-001,7.613204419612885E-002,6.331500411033630E-002,-9.844685196876526E-001,1.370534002780914E-001,
1.074866666666667E+009,8.647728711366653E-002,5.988930538296700E-002,-9.659115672111511E-001,1.530835777521133E-001,8.647728711366653E-002,5.988930538296700E-002,-9.659115672111511E-001,1.530835777521133E-001,
1.083233333333334E+009,9.774156659841538E-002,4.682934656739235E-002,-9.639853239059448E-001,1.743093729019165E-001,9.774156659841538E-002,4.682934656739235E-002,-9.639853239059448E-001,1.743093729019165E-001,
1.091600000000000E+009,1.040507331490517E-001,3.553735092282295E-002,-9.549280405044556E-001,1.956145465373993E-001,1.040507331490517E-001,3.553735092282295E-002,-9.549280405044556E-001,1.956145465373993E-001,
1.099966666666667E+009,1.062194332480431E-001,2.008861862123013E-002,-9.577203989028931E-001,2.334778159856796E-001,1.062194332480431E-001,2.008861862123013E-002,-9.577203989028931E-001,2.334778159856796E-001,
1.108333333333334E+009,9.788969159126282E-002,8.837709203362465E-003,-9.366305470466614E-001,2.368579953908920E-001,9.788969159126282E-002,8.837709203362465E-003,-9.366305470466614E-001,2.368579953908920E-001,
1.116700000000000E+009,8.495890349149704E-002,7.045773789286614E-003,-9.356706738471985E-001,2.817305326461792E-001,8.495890349149704E-002,7.045773789286614E-003,-9.356706738471985E-001,2.817305326461792E-001,
1.125066666666667E+009,7.420188188552856E-002,7.379423361271620E-003,-9.405662417411804E-001,2.923669219017029E-001,7.420188188552856E-002,7.379423361271620E-003,-9.405662417411804E-001,2.923669219017029E-001,
1.133433333333334E+009,6.645425409078598E-002,1.817938312888145E-002,-9.400926828384399E-001,3.178482651710510E-001,6.645425409078598E-002,1.817938312888145E-002,-9.400926828384399E-001,3.178482651710510E-001,
1.141800000000000E+009,6.672530621290207E-002,2.835934236645699E-002,-9.118920564651489E-001,3.388101160526276E-001,6.672530621290207E-002,2.835934236645699E-002,-9.118920564651489E-001,3.388101160526276E-001,
1.150166666666667E+009,7.454329729080200E-002,4.101243615150452E-002,-8.937656879425049E-001,3.697898387908936E-001,7.454329729080200E-002,4.101243615150452E-002,-8.937656879425049E-001,3.697898387908936E-001,
1.158533333333334E+009,8.908577263355255E-002,4.602043703198433E-002,-8.951122760772705E-001,3.941819369792938E-001,8.908577263355255E-002,4.602043703198433E-002,-8.951122760772705E-001,3.941819369792938E-001,
1.166900000000000E+009,1.084578111767769E-001,4.226716980338097E-002,-8.843709230422974E-001,4.269941151142120E-001,1.084578111767769E-001,4.226716980338097E-002,-8.843709230422974E-001,4.269941151142120E-001,
1.175266666666667E+009,1.222256124019623E-001,2.745580486953259E-002,-8.732683658599854E-001,4.310573637485504E-001,1.222256124019623E-001,2.745580486953259E-002,-8.732683658599854E-001,4.310573637485504E-001,
1.183633333333334E+009,1.325643509626389E-001,8.887715637683868E-003,-8.613005280494690E-001,4.684126675128937E-001,1.325643509626389E-001,8.887715637683868E-003,-8.613005280494690E-001,4.684126675128937E-001,
1.192000000000000E+009,1.325576901435852E-001,-1.364706177264452E-002,-8.511638641357422E-001,4.745646119117737E-001,1.325576901435852E-001,-1.364706177264452E-002,-8.511638641357422E-001,4.745646119117737E-001,
1.200366666666667E+009,1.214463636279106E-001,-3.046126663684845E-002,-8.422046303749085E-001,5.014047026634216E-001,1.214463636279106E-001,-3.046126663684845E-002,-8.422046303749085E-001,5.014047026634216E-001,
1.208733333333334E+009,1.063559725880623E-001,-4.103266075253487E-002,-8.368943929672241E-001,5.184161067008972E-001,1.063559725880623E-001,-4.103266075253487E-002,-8.368943929672241E-001,5.184161067008972E-001,
1.217100000000000E+009,8.920796215534210E-002,-3.908660262823105E-002,-8.224822878837585E-001,5.392013192176819E-001,8.920796215534210E-002,-3.908660262823105E-002,-8.224822878837585E-001,5.392013192176819E-001,
1.225466666666667E+009,7.877440750598908E-002,-3.257648646831513E-002,-7.969499826431274E-001,5.660469532012940E-001,7.877440750598908E-002,-3.257648646831513E-002,-7.969499826431274E-001,5.660469532012940E-001,
1.233833333333334E+009,7.281433790922165E-002,-1.746072806417942E-002,-7.803990244865418E-001,5.849859118461609E-001,7.281433790922165E-002,-1.746072806417942E-002,-7.803990244865418E-001,5.849859118461609E-001,
1.242200000000000E+009,7.751156389713287E-002,-2.930486341938376E-003,-7.652923464775085E-001,5.984486341476440E-001,7.751156389713287E-002,-2.930486341938376E-003,-7.652923464775085E-001,5.984486341476440E-001,
1.250566666666667E+009,9.259037673473358E-002,3.744123037904501E-003,-7.371506094932556E-001,6.256842613220215E-001,9.259037673473358E-002,3.744123037904501E-003,-7.371506094932556E-001,6.256842613220215E-001,
1.258933333333334E+009,1.095653325319290E-001,7.375858258455992E-004,-7.458771467208862E-001,6.455004811286926E-001,1.095653325319290E-001,7.375858258455992E-004,-7.458771467208862E-001,6.455004811286926E-001,
1.267300000000000E+009,1.253783702850342E-001,-1.411213818937540E-002,-7.242299318313599E-001,6.572791934013367E-001,1.253783702850342E-001,-1.411213818937540E-002,-7.242299318313599E-001,6.572791934013367E-001,
1.275666666666667E+009,1.334250122308731E-001,-3.476541116833687E-002,-6.900104880332947E-001,6.788573861122131E-001,1.334250122308731E-001,-3.476541116833687E-002,-6.900104880332947E-001,6.788573861122131E-001,
1.284033333333334E+009,1.303718388080597E-001,-5.903227999806404E-002,-6.821933984756470E-001,6.968397498130798E-001,1.303718388080597E-001,-5.903227999806404E-002,-6.821933984756470E-001,6.968397498130798E-001,
1.292400000000000E+009,1.177324354648590E-001,-7.909616082906723E-002,-6.713787317276001E-001,7.111327648162842E-001,1.177324354648590E-001,-7.909616082906723E-002,-6.713787317276001E-001,7.111327648162842E-001,
1.300766666666667E+009,9.828146547079086E-002,-8.842118829488754E-002,-6.485772132873535E-001,7.263669371604919E-001,9.828146547079086E-002,-8.842118829488754E-002,-6.485772132873535E-001,7.263669371604919E-001,
1.309133333333334E+009,7.627873867750168E-002,-8.860798180103302E-002,-6.375416517257690E-001,7.434833049774170E-001,7.627873867750168E-002,-8.860798180103302E-002,-6.375416517257690E-001,7.434833049774170E-001,
1.317500000000000E+009,6.369639933109283E-002,-7.847093045711517E-002,-6.130293607711792E-001,7.583645582199097E-001,6.369639933109283E-002,-7.847093045711517E-002,-6.130293607711792E-001,7.583645582199097E-001,
1.325866666666667E+009,5.765124410390854E-002,-6.120394542813301E-002,-5.972459316253662E-001,7.742245197296143E-001,5.765124410390854E-002,-6.120394542813301E-002,-5.972459316253662E-001,7.742245197296143E-001,
1.334233333333334E+009,6.387759745121002E-002,-4.643476754426956E-002,-5.679852962493897E-001,7.953292131423950E-001,6.387759745121002E-002,-4.643476754426956E-002,-5.679852962493897E-001,7.953292131423950E-001,
1.342600000000000E+009,7.672772556543350E-002,-4.078543186187744E-002,-5.477912425994873E-001,8.136447668075562E-001,7.672772556543350E-002,-4.078543186187744E-002,-5.477912425994873E-001,8.136447668075562E-001,
1.350966666666667E+009,9.322908520698547E-002,-4.535886645317078E-002,-5.151699781417847E-001,8.359553813934326E-001,9.322908520698547E-002,-4.535886645317078E-002,-5.151699781417847E-001,8.359553813934326E-001,
1.359333333333334E+009,1.072841808199883E-001,-5.929545313119888E-002,-5.038304328918457E-001,8.362773060798645E-001,1.072841808199883E-001,-5.929545313119888E-002,-5.038304328918457E-001,8.362773060798645E-001,
1.367700000000000E+009,1.062853187322617E-001,-8.218806982040405E-002,-4.865018129348755E-001,8.436875939369202E-001,1.062853187322617E-001,-8.218806982040405E-002,-4.865018129348755E-001,8.436875939369202E-001,
1.376066666666667E+009,9.868658334016800E-002,-1.026296690106392E-001,-4.706673324108124E-001,8.584482669830322E-001,9.868658334016800E-002,-1.026296690106392E-001,-4.706673324108124E-001,8.584482669830322E-001,
1.384433333333334E+009,7.923775911331177E-002,-1.211805418133736E-001,-4.455925226211548E-001,8.786544203758240E-001,7.923775911331177E-002,-1.211805418133736E-001,-4.455925226211548E-001,8.786544203758240E-001,
1.392800000000000E+009,5.585788935422897E-002,-1.258363425731659E-001,-4.329760968685150E-001,8.734739422798157E-001,5.585788935422897E-002,-1.258363425731659E-001,-4.329760968685150E-001,8.734739422798157E-001,
1.401166666666667E+009,3.481281921267510E-002,-1.189293488860130E-001,-4.098328649997711E-001,8.923285007476807E-001,3.481281921267510E-002,-1.189293488860130E-001,-4.098328649997711E-001,8.923285007476807E-001,
1.409533333333334E+009,1.985289901494980E-002,-1.036892309784889E-001,-3.793096542358398E-001,9.040107727050781E-001,1.985289901494980E-002,-1.036892309784889E-001,-3.793096542358398E-001,9.040107727050781E-001,
1.417900000000000E+009,1.717417314648628E-002,-8.127579838037491E-002,-3.662463128566742E-001,8.997622132301331E-001,1.717417314648628E-002,-8.127579838037491E-002,-3.662463128566742E-001,8.997622132301331E-001,
1.426266666666667E+009,2.730778977274895E-002,-6.699490547180176E-002,-3.324180245399475E-001,9.243295192718506E-001,2.730778977274895E-002,-6.699490547180176E-002,-3.324180245399475E-001,9.243295192718506E-001,
1.434633333333334E+009,4.465198144316673E-002,-5.847308039665222E-002,-2.979892492294312E-001,9.332007765769959E-001,4.465198144316673E-002,-5.847308039665222E-002,-2.979892492294312E-001,9.332007765769959E-001,
1.443000000000000E+009,6.212078034877777E-002,-6.277879327535629E-002,-2.798164486885071E-001,9.363874793052673E-001,6.212078034877777E-002,-6.277879327535629E-002,-2.798164486885071E-001,9.363874793052673E-001,
1.451366666666667E+009,7.511154562234879E-002,-7.702015340328217E-002,-2.472515553236008E-001,9.382991194725037E-001,7.511154562234879E-002,-7.702015340328217E-002,-2.472515553236008E-001,9.382991194725037E-001,
1.459733333333334E+009,7.898361235857010E-002,-1.008486673235893E-001,-2.304726690053940E-001,9.395697116851807E-001,7.898361235857010E-002,-1.008486673235893E-001,-2.304726690053940E-001,9.395697116851807E-001,
