% Version 1.00
%
%freq[Hz],re:Trc1_S11,im:Trc1_S11,re:Trc2_S21,im:Trc2_S21,re:Trc3_S11,im:Trc3_S11,re:Trc4_S21,im:Trc4_S21,
6.900000000000000E+008,-3.145513683557510E-002,5.179452151060104E-002,-4.957630336284638E-001,-8.509280085563660E-001,-3.145513683557510E-002,5.179452151060104E-002,-4.957630336284638E-001,-8.509280085563660E-001,
6.983666666666666E+008,-2.111821807920933E-002,5.283936858177185E-002,-5.198658704757690E-001,-8.419240117073059E-001,-2.111821807920933E-002,5.283936858177185E-002,-5.198658704757690E-001,-8.419240117073059E-001,
7.067333333333334E+008,-1.434066146612167E-002,4.794517904520035E-002,-5.656712651252747E-001,-7.797557711601257E-001,-1.434066146612167E-002,4.794517904520035E-002,-5.656712651252747E-001,-7.797557711601257E-001,
7.151000000000000E+008,-1.297103799879551E-002,4.051170870661736E-002,-5.852851867675781E-001,-7.937880754470825E-001,-1.297103799879551E-002,4.051170870661736E-002,-5.852851867675781E-001,-7.937880754470825E-001,
7.234666666666666E+008,-1.567312143743038E-002,3.547690436244011E-002,-5.961401462554932E-001,-7.833776473999023E-001,-1.567312143743038E-002,3.547690436244011E-002,-5.961401462554932E-001,-7.833776473999023E-001,
7.318333333333334E+008,-2.196394465863705E-002,3.342919424176216E-002,-6.118047237396240E-001,-7.810705304145813E-001,-2.196394465863705E-002,3.342919424176216E-002,-6.118047237396240E-001,-7.810705304145813E-001,
7.402000000000000E+008,-2.775270678102970E-002,3.412143886089325E-002,-6.582127809524536E-001,-7.609990835189819E-001,-2.775270678102970E-002,3.412143886089325E-002,-6.582127809524536E-001,-7.609990835189819E-001,
7.485666666666666E+008,-3.403666988015175E-002,4.050157219171524E-002,-6.553592681884766E-001,-7.586832046508789E-001,-3.403666988015175E-002,4.050157219171524E-002,-6.553592681884766E-001,-7.586832046508789E-001,
7.569333333333334E+008,-3.457327187061310E-002,4.880224913358688E-002,-6.612986922264099E-001,-7.364392280578613E-001,-3.457327187061310E-002,4.880224913358688E-002,-6.612986922264099E-001,-7.364392280578613E-001,
7.653000000000000E+008,-2.893297560513020E-002,5.656884238123894E-002,-6.823462247848511E-001,-7.183466553688049E-001,-2.893297560513020E-002,5.656884238123894E-002,-6.823462247848511E-001,-7.183466553688049E-001,
7.736666666666666E+008,-2.145863324403763E-002,6.306846439838409E-002,-7.135948538780212E-001,-6.909810304641724E-001,-2.145863324403763E-002,6.306846439838409E-002,-7.135948538780212E-001,-6.909810304641724E-001,
7.820333333333334E+008,-1.142966654151678E-002,6.587895750999451E-002,-7.254374027252197E-001,-6.787336468696594E-001,-1.142966654151678E-002,6.587895750999451E-002,-7.254374027252197E-001,-6.787336468696594E-001,
7.904000000000000E+008,-2.548840420786291E-004,6.489717960357666E-002,-7.295019626617432E-001,-6.574748754501343E-001,-2.548840420786291E-004,6.489717960357666E-002,-7.295019626617432E-001,-6.574748754501343E-001,
7.987666666666666E+008,5.091379396617413E-003,5.939643085002899E-002,-7.646554708480835E-001,-6.361283659934998E-001,5.091379396617413E-003,5.939643085002899E-002,-7.646554708480835E-001,-6.361283659934998E-001,
8.071333333333334E+008,8.551263250410557E-003,5.443018302321434E-002,-7.697458863258362E-001,-6.247339844703674E-001,8.551263250410557E-003,5.443018302321434E-002,-7.697458863258362E-001,-6.247339844703674E-001,
8.155000000000000E+008,3.186604240909219E-003,4.857636243104935E-002,-7.926167249679565E-001,-6.035228371620178E-001,3.186604240909219E-003,4.857636243104935E-002,-7.926167249679565E-001,-6.035228371620178E-001,
8.238666666666666E+008,8.464070851914585E-004,4.501572996377945E-002,-7.945407032966614E-001,-5.757431983947754E-001,8.464070851914585E-004,4.501572996377945E-002,-7.945407032966614E-001,-5.757431983947754E-001,
8.322333333333334E+008,-5.688454024493694E-003,4.504196345806122E-002,-8.150934576988220E-001,-5.557816624641419E-001,-5.688454024493694E-003,4.504196345806122E-002,-8.150934576988220E-001,-5.557816624641419E-001,
8.406000000000000E+008,-1.047812774777412E-002,4.896175116300583E-002,-8.264191150665283E-001,-5.410669445991516E-001,-1.047812774777412E-002,4.896175116300583E-002,-8.264191150665283E-001,-5.410669445991516E-001,
8.489666666666668E+008,-1.344327908009291E-002,5.630705133080483E-002,-8.387505412101746E-001,-5.272477865219116E-001,-1.344327908009291E-002,5.630705133080483E-002,-8.387505412101746E-001,-5.272477865219116E-001,
8.573333333333334E+008,-1.078442856669426E-002,6.404475122690201E-002,-8.561505675315857E-001,-4.855082631111145E-001,-1.078442856669426E-002,6.404475122690201E-002,-8.561505675315857E-001,-4.855082631111145E-001,
8.657000000000000E+008,-1.109577482566237E-003,7.102551311254501E-002,-8.706360459327698E-001,-4.668209552764893E-001,-1.109577482566237E-003,7.102551311254501E-002,-8.706360459327698E-001,-4.668209552764893E-001,
8.740666666666668E+008,7.611315231770277E-003,7.358586043119431E-002,-8.701374530792236E-001,-4.533987343311310E-001,7.611315231770277E-003,7.358586043119431E-002,-8.701374530792236E-001,-4.533987343311310E-001,
8.824333333333334E+008,1.826554909348488E-002,7.253041863441467E-002,-8.869395256042481E-001,-4.387044012546539E-001,1.826554909348488E-002,7.253041863441467E-002,-8.869395256042481E-001,-4.387044012546539E-001,
8.908000000000000E+008,2.830816619098187E-002,6.779886782169342E-002,-8.869807124137878E-001,-4.057986438274384E-001,2.830816619098187E-002,6.779886782169342E-002,-8.869807124137878E-001,-4.057986438274384E-001,
8.991666666666668E+008,3.260001540184021E-002,6.093723326921463E-002,-9.026661515235901E-001,-3.791250884532929E-001,3.260001540184021E-002,6.093723326921463E-002,-9.026661515235901E-001,-3.791250884532929E-001,
9.075333333333334E+008,3.355082497000694E-002,5.426528677344322E-002,-9.326906204223633E-001,-3.611181378364563E-001,3.355082497000694E-002,5.426528677344322E-002,-9.326906204223633E-001,-3.611181378364563E-001,
9.159000000000000E+008,3.122064098715782E-002,5.125939846038818E-002,-9.378124475479126E-001,-3.324437439441681E-001,3.122064098715782E-002,5.125939846038818E-002,-9.378124475479126E-001,-3.324437439441681E-001,
9.242666666666668E+008,2.660916745662689E-002,4.779322817921639E-002,-9.438959360122681E-001,-3.177645802497864E-001,2.660916745662689E-002,4.779322817921639E-002,-9.438959360122681E-001,-3.177645802497864E-001,
9.326333333333334E+008,1.960422843694687E-002,4.830925539135933E-002,-9.636818170547485E-001,-2.935004830360413E-001,1.960422843694687E-002,4.830925539135933E-002,-9.636818170547485E-001,-2.935004830360413E-001,
9.410000000000000E+008,1.656113564968109E-002,5.271621420979500E-002,-9.576170444488525E-001,-2.600659132003784E-001,1.656113564968109E-002,5.271621420979500E-002,-9.576170444488525E-001,-2.600659132003784E-001,
9.493666666666668E+008,1.634985953569412E-002,5.894122645258904E-002,-9.559937119483948E-001,-2.427345365285873E-001,1.634985953569412E-002,5.894122645258904E-002,-9.559937119483948E-001,-2.427345365285873E-001,
9.577333333333334E+008,1.986892893910408E-002,6.694782525300980E-002,-9.709813594818115E-001,-2.181750833988190E-001,1.986892893910408E-002,6.694782525300980E-002,-9.709813594818115E-001,-2.181750833988190E-001,
9.661000000000000E+008,2.968399599194527E-002,7.317893952131271E-002,-9.681347608566284E-001,-1.930707246065140E-001,2.968399599194527E-002,7.317893952131271E-002,-9.681347608566284E-001,-1.930707246065140E-001,
9.744666666666668E+008,3.868550434708595E-002,7.275743037462235E-002,-9.739449620246887E-001,-1.714822202920914E-001,3.868550434708595E-002,7.275743037462235E-002,-9.739449620246887E-001,-1.714822202920914E-001,
9.828333333333334E+008,5.278506129980087E-002,6.915707141160965E-002,-9.763860106468201E-001,-1.499749124050140E-001,5.278506129980087E-002,6.915707141160965E-002,-9.763860106468201E-001,-1.499749124050140E-001,
9.912000000000000E+008,6.110105663537979E-002,6.222737953066826E-002,-9.759406447410584E-001,-1.228750199079514E-001,6.110105663537979E-002,6.222737953066826E-002,-9.759406447410584E-001,-1.228750199079514E-001,
9.995666666666668E+008,6.785209476947784E-002,5.238828063011169E-002,-9.923207163810730E-001,-8.427634835243225E-002,6.785209476947784E-002,5.238828063011169E-002,-9.923207163810730E-001,-8.427634835243225E-002,
1.007933333333333E+009,6.828202307224274E-002,4.304631799459457E-002,-9.929050803184509E-001,-7.216506451368332E-002,6.828202307224274E-002,4.304631799459457E-002,-9.929050803184509E-001,-7.216506451368332E-002,
1.016300000000000E+009,6.274244189262390E-002,3.657392784953117E-002,-9.948251247406006E-001,-4.648523032665253E-002,6.274244189262390E-002,3.657392784953117E-002,-9.948251247406006E-001,-4.648523032665253E-002,
1.024666666666667E+009,5.580654740333557E-002,2.998592518270016E-002,-9.949297308921814E-001,-1.214906480163336E-002,5.580654740333557E-002,2.998592518270016E-002,-9.949297308921814E-001,-1.214906480163336E-002,
1.033033333333333E+009,4.925335943698883E-002,3.224878013134003E-002,-9.942671060562134E-001,4.673814866691828E-003,4.925335943698883E-002,3.224878013134003E-002,-9.942671060562134E-001,4.673814866691828E-003,
1.041400000000000E+009,4.375377669930458E-002,3.749039396643639E-002,-9.801633954048157E-001,4.500609263777733E-002,4.375377669930458E-002,3.749039396643639E-002,-9.801633954048157E-001,4.500609263777733E-002,
1.049766666666667E+009,4.386496171355248E-002,4.498182237148285E-002,-9.910104274749756E-001,6.467644870281220E-002,4.386496171355248E-002,4.498182237148285E-002,-9.910104274749756E-001,6.467644870281220E-002,
1.058133333333333E+009,5.021228641271591E-002,5.075769871473312E-002,-9.858755469322205E-001,8.383264392614365E-002,5.021228641271591E-002,5.075769871473312E-002,-9.858755469322205E-001,8.383264392614365E-002,
1.066500000000000E+009,6.205914169549942E-002,5.359379947185516E-002,-9.921450018882752E-001,1.231656074523926E-001,6.205914169549942E-002,5.359379947185516E-002,-9.921450018882752E-001,1.231656074523926E-001,
1.074866666666667E+009,7.316811382770538E-002,5.093583464622498E-002,-9.745244979858398E-001,1.411874294281006E-001,7.316811382770538E-002,5.093583464622498E-002,-9.745244979858398E-001,1.411874294281006E-001,
1.083233333333334E+009,8.483716100454330E-002,3.881497681140900E-002,-9.728301167488098E-001,1.602317094802856E-001,8.483716100454330E-002,3.881497681140900E-002,-9.728301167488098E-001,1.602317094802856E-001,
1.091600000000000E+009,9.152867645025253E-002,2.800572477281094E-002,-9.637808799743652E-001,1.826763600111008E-001,9.152867645025253E-002,2.800572477281094E-002,-9.637808799743652E-001,1.826763600111008E-001,
1.099966666666667E+009,9.329551458358765E-002,1.292906049638987E-002,-9.666370153427124E-001,2.214788198471069E-001,9.329551458358765E-002,1.292906049638987E-002,-9.666370153427124E-001,2.214788198471069E-001,
1.108333333333334E+009,8.422619849443436E-002,1.862852601334453E-003,-9.477957487106323E-001,2.243901342153549E-001,8.422619849443436E-002,1.862852601334453E-003,-9.477957487106323E-001,2.243901342153549E-001,
1.116700000000000E+009,7.058834284543991E-002,3.784047148656100E-004,-9.456805586814880E-001,2.694092988967896E-001,7.058834284543991E-002,3.784047148656100E-004,-9.456805586814880E-001,2.694092988967896E-001,
1.125066666666667E+009,5.837472528219223E-002,7.217659731395543E-004,-9.508867263793945E-001,2.802399992942810E-001,5.837472528219223E-002,7.217659731395543E-004,-9.508867263793945E-001,2.802399992942810E-001,
1.133433333333334E+009,4.966374859213829E-002,1.239930465817452E-002,-9.516696929931641E-001,3.056727647781372E-001,4.966374859213829E-002,1.239930465817452E-002,-9.516696929931641E-001,3.056727647781372E-001,
1.141800000000000E+009,4.944584146142006E-002,2.294136583805084E-002,-9.229326248168945E-001,3.267786204814911E-001,4.944584146142006E-002,2.294136583805084E-002,-9.229326248168945E-001,3.267786204814911E-001,
1.150166666666667E+009,5.657938495278359E-002,3.610775992274284E-002,-9.060698747634888E-001,3.583148717880249E-001,5.657938495278359E-002,3.610775992274284E-002,-9.060698747634888E-001,3.583148717880249E-001,
1.158533333333334E+009,7.113021612167358E-002,4.179642349481583E-002,-9.073051810264587E-001,3.818998932838440E-001,7.113021612167358E-002,4.179642349481583E-002,-9.073051810264587E-001,3.818998932838440E-001,
1.166900000000000E+009,9.059006720781326E-002,3.862170875072479E-002,-8.970946073532105E-001,4.153320789337158E-001,9.059006720781326E-002,3.862170875072479E-002,-8.970946073532105E-001,4.153320789337158E-001,
1.175266666666667E+009,1.058822870254517E-001,2.495198324322701E-002,-8.877090811729431E-001,4.222060739994049E-001,1.058822870254517E-001,2.495198324322701E-002,-8.877090811729431E-001,4.222060739994049E-001,
1.183633333333334E+009,1.168261989951134E-001,6.830296013504267E-003,-8.744400739669800E-001,4.581699371337891E-001,1.168261989951134E-001,6.830296013504267E-003,-8.744400739669800E-001,4.581699371337891E-001,
1.192000000000000E+009,1.175096929073334E-001,-1.520253159105778E-002,-8.656238317489624E-001,4.645148813724518E-001,1.175096929073334E-001,-1.520253159105778E-002,-8.656238317489624E-001,4.645148813724518E-001,
1.200366666666667E+009,1.064867302775383E-001,-3.224322944879532E-002,-8.557509779930115E-001,4.921885728836060E-001,1.064867302775383E-001,-3.224322944879532E-002,-8.557509779930115E-001,4.921885728836060E-001,
1.208733333333334E+009,9.058365225791931E-002,-4.251005500555039E-002,-8.509882688522339E-001,5.095988512039185E-001,9.058365225791931E-002,-4.251005500555039E-002,-8.509882688522339E-001,5.095988512039185E-001,
1.217100000000000E+009,7.218057662248612E-002,-4.016731679439545E-002,-8.359075188636780E-001,5.300830006599426E-001,7.218057662248612E-002,-4.016731679439545E-002,-8.359075188636780E-001,5.300830006599426E-001,
1.225466666666667E+009,6.068631634116173E-002,-3.277719765901566E-002,-8.111727833747864E-001,5.576485991477966E-001,6.068631634116173E-002,-3.277719765901566E-002,-8.111727833747864E-001,5.576485991477966E-001,
1.233833333333334E+009,5.385065078735352E-002,-1.722727343440056E-002,-7.947689890861511E-001,5.771200656890869E-001,5.385065078735352E-002,-1.722727343440056E-002,-7.947689890861511E-001,5.771200656890869E-001,
1.242200000000000E+009,5.777966976165772E-002,-1.880551339127123E-003,-7.800368070602417E-001,5.902335643768311E-001,5.777966976165772E-002,-1.880551339127123E-003,-7.800368070602417E-001,5.902335643768311E-001,
1.250566666666667E+009,7.255724072456360E-002,5.752477794885635E-003,-7.520093917846680E-001,6.185543537139893E-001,7.255724072456360E-002,5.752477794885635E-003,-7.520093917846680E-001,6.185543537139893E-001,
1.258933333333334E+009,9.011428803205490E-002,3.730182070285082E-003,-7.622759938240051E-001,6.389390230178833E-001,9.011428803205490E-002,3.730182070285082E-003,-7.622759938240051E-001,6.389390230178833E-001,
1.267300000000000E+009,1.069530323147774E-001,-1.059413701295853E-002,-7.402449846267700E-001,6.507291793823242E-001,1.069530323147774E-001,-1.059413701295853E-002,-7.402449846267700E-001,6.507291793823242E-001,
1.275666666666667E+009,1.162342205643654E-001,-3.107644245028496E-002,-7.062989473342896E-001,6.734654903411865E-001,1.162342205643654E-001,-3.107644245028496E-002,-7.062989473342896E-001,6.734654903411865E-001,
1.284033333333334E+009,1.141978204250336E-001,-5.518667027354240E-002,-6.998178362846375E-001,6.907405853271484E-001,1.141978204250336E-001,-5.518667027354240E-002,-6.998178362846375E-001,6.907405853271484E-001,
1.292400000000000E+009,1.018655449151993E-001,-7.517442107200623E-002,-6.886039972305298E-001,7.068145871162415E-001,1.018655449151993E-001,-7.517442107200623E-002,-6.886039972305298E-001,7.068145871162415E-001,
1.300766666666667E+009,8.243280649185181E-002,-8.451835811138153E-002,-6.651561260223389E-001,7.223713994026184E-001,8.243280649185181E-002,-8.451835811138153E-002,-6.651561260223389E-001,7.223713994026184E-001,
1.309133333333334E+009,5.974701046943665E-002,-8.375251293182373E-002,-6.540722846984863E-001,7.386246323585510E-001,5.974701046943665E-002,-8.375251293182373E-002,-6.540722846984863E-001,7.386246323585510E-001,
1.317500000000000E+009,4.615030437707901E-002,-7.312431186437607E-002,-6.293511390686035E-001,7.541674375534058E-001,4.615030437707901E-002,-7.312431186437607E-002,-6.293511390686035E-001,7.541674375534058E-001,
1.325866666666667E+009,3.951907902956009E-002,-5.481728166341782E-002,-6.142863631248474E-001,7.704135179519653E-001,3.951907902956009E-002,-5.481728166341782E-002,-6.142863631248474E-001,7.704135179519653E-001,
1.334233333333334E+009,4.502835124731064E-002,-3.907711803913117E-002,-5.855458378791809E-001,7.906779646873474E-001,4.502835124731064E-002,-3.907711803913117E-002,-5.855458378791809E-001,7.906779646873474E-001,
1.342600000000000E+009,5.755494162440300E-002,-3.211119025945664E-002,-5.657321214675903E-001,8.085234165191650E-001,5.755494162440300E-002,-3.211119025945664E-002,-5.657321214675903E-001,8.085234165191650E-001,
1.350966666666667E+009,7.448247075080872E-002,-3.576051443815231E-002,-5.340078473091126E-001,8.325613737106323E-001,7.448247075080872E-002,-3.576051443815231E-002,-5.340078473091126E-001,8.325613737106323E-001,
1.359333333333334E+009,8.915544301271439E-002,-4.950386285781860E-002,-5.232272744178772E-001,8.333047628402710E-001,8.915544301271439E-002,-4.950386285781860E-002,-5.232272744178772E-001,8.333047628402710E-001,
1.367700000000000E+009,8.957502245903015E-002,-7.262880355119705E-002,-5.057684183120728E-001,8.420733809471130E-001,8.957502245903015E-002,-7.262880355119705E-002,-5.057684183120728E-001,8.420733809471130E-001,
1.376066666666667E+009,8.310510218143463E-002,-9.329406172037125E-002,-4.901033341884613E-001,8.582891821861267E-001,8.310510218143463E-002,-9.329406172037125E-002,-4.901033341884613E-001,8.582891821861267E-001,
1.384433333333334E+009,6.429645419120789E-002,-1.117806509137154E-001,-4.647716879844666E-001,8.792899847030640E-001,6.429645419120789E-002,-1.117806509137154E-001,-4.647716879844666E-001,8.792899847030640E-001,
1.392800000000000E+009,4.111738875508308E-002,-1.161593943834305E-001,-4.511223733425140E-001,8.739248514175415E-001,4.111738875508308E-002,-1.161593943834305E-001,-4.511223733425140E-001,8.739248514175415E-001,
1.401166666666667E+009,1.953569240868092E-002,-1.083355620503426E-001,-4.284036159515381E-001,8.925406336784363E-001,1.953569240868092E-002,-1.083355620503426E-001,-4.284036159515381E-001,8.925406336784363E-001,
1.409533333333334E+009,4.642991814762354E-003,-9.205701202154160E-002,-3.980947136878967E-001,9.054228067398071E-001,4.642991814762354E-003,-9.205701202154160E-002,-3.980947136878967E-001,9.054228067398071E-001,
1.417900000000000E+009,1.556371222250164E-003,-6.867507845163345E-002,-3.845033943653107E-001,9.001078009605408E-001,1.556371222250164E-003,-6.867507845163345E-002,-3.845033943653107E-001,9.001078009605408E-001,
1.426266666666667E+009,1.126646157354116E-002,-5.286813154816628E-002,-3.519791066646576E-001,9.255191683769226E-001,1.126646157354116E-002,-5.286813154816628E-002,-3.519791066646576E-001,9.255191683769226E-001,
1.434633333333334E+009,2.844487689435482E-002,-4.292814061045647E-002,-3.175702989101410E-001,9.356684684753418E-001,2.844487689435482E-002,-4.292814061045647E-002,-3.175702989101410E-001,9.356684684753418E-001,
1.443000000000000E+009,4.650022089481354E-002,-4.612737894058228E-002,-3.003239631652832E-001,9.390300512313843E-001,4.650022089481354E-002,-4.612737894058228E-002,-3.003239631652832E-001,9.390300512313843E-001,
1.451366666666667E+009,6.017845869064331E-002,-6.007922068238258E-002,-2.681818008422852E-001,9.420519471168518E-001,6.017845869064331E-002,-6.007922068238258E-002,-2.681818008422852E-001,9.420519471168518E-001,
1.459733333333334E+009,6.514608860015869E-002,-8.420576155185700E-002,-2.509670853614807E-001,9.443847537040710E-001,6.514608860015869E-002,-8.420576155185700E-002,-2.509670853614807E-001,9.443847537040710E-001,
