% Version 1.00
%
%freq[Hz],re:Trc1_S11,im:Trc1_S11,re:Trc2_S21,im:Trc2_S21,re:Trc3_S11,im:Trc3_S11,re:Trc4_S21,im:Trc4_S21,
6.900000000000000E+008,-4.897839948534966E-002,1.272753160446882E-002,-4.935992360115051E-001,-8.505589962005615E-001,-4.897839948534966E-002,1.272753160446882E-002,-4.935992360115051E-001,-8.505589962005615E-001,
6.983666666666666E+008,-4.013707116246223E-002,1.362382620573044E-002,-5.169721841812134E-001,-8.485288619995117E-001,-4.013707116246223E-002,1.362382620573044E-002,-5.169721841812134E-001,-8.485288619995117E-001,
7.067333333333334E+008,-3.407786414027214E-002,7.908225990831852E-003,-5.634859800338745E-001,-7.810398936271668E-001,-3.407786414027214E-002,7.908225990831852E-003,-5.634859800338745E-001,-7.810398936271668E-001,
7.151000000000000E+008,-3.481331840157509E-002,4.108633147552609E-004,-5.822597146034241E-001,-7.971568703651428E-001,-3.481331840157509E-002,4.108633147552609E-004,-5.822597146034241E-001,-7.971568703651428E-001,
7.234666666666666E+008,-3.887149691581726E-002,-4.696721676737070E-003,-5.968900322914124E-001,-7.843901515007019E-001,-3.887149691581726E-002,-4.696721676737070E-003,-5.968900322914124E-001,-7.843901515007019E-001,
7.318333333333334E+008,-4.673574119806290E-002,-7.166069932281971E-003,-6.108840107917786E-001,-7.814812064170837E-001,-4.673574119806290E-002,-7.166069932281971E-003,-6.108840107917786E-001,-7.814812064170837E-001,
7.402000000000000E+008,-5.373116210103035E-002,-6.478585302829742E-003,-6.536043286323547E-001,-7.642649412155151E-001,-5.373116210103035E-002,-6.478585302829742E-003,-6.536043286323547E-001,-7.642649412155151E-001,
7.485666666666666E+008,-6.198616698384285E-002,-4.172158660367131E-004,-6.522904634475708E-001,-7.614052891731262E-001,-6.198616698384285E-002,-4.172158660367131E-004,-6.522904634475708E-001,-7.614052891731262E-001,
7.569333333333334E+008,-6.457402557134628E-002,7.569050882011652E-003,-6.586877107620239E-001,-7.446659207344055E-001,-6.457402557134628E-002,7.569050882011652E-003,-6.586877107620239E-001,-7.446659207344055E-001,
7.653000000000000E+008,-6.095940992236137E-002,1.538601703941822E-002,-6.765559911727905E-001,-7.252510786056519E-001,-6.095940992236137E-002,1.538601703941822E-002,-6.765559911727905E-001,-7.252510786056519E-001,
7.736666666666666E+008,-5.467272549867630E-002,2.173383720219135E-002,-7.108225226402283E-001,-6.958976387977600E-001,-5.467272549867630E-002,2.173383720219135E-002,-7.108225226402283E-001,-6.958976387977600E-001,
7.820333333333334E+008,-4.649472981691361E-002,2.467017248272896E-002,-7.215495705604553E-001,-6.838328838348389E-001,-4.649472981691361E-002,2.467017248272896E-002,-7.215495705604553E-001,-6.838328838348389E-001,
7.904000000000000E+008,-3.761044889688492E-002,2.381003834307194E-002,-7.273460030555725E-001,-6.624821424484253E-001,-3.761044889688492E-002,2.381003834307194E-002,-7.273460030555725E-001,-6.624821424484253E-001,
7.987666666666666E+008,-3.353181481361389E-002,1.838042214512825E-002,-7.629072070121765E-001,-6.412269473075867E-001,-3.353181481361389E-002,1.838042214512825E-002,-7.629072070121765E-001,-6.412269473075867E-001,
8.071333333333334E+008,-3.181901946663857E-002,1.363463327288628E-002,-7.649909257888794E-001,-6.317017078399658E-001,-3.181901946663857E-002,1.363463327288628E-002,-7.649909257888794E-001,-6.317017078399658E-001,
8.155000000000000E+008,-3.794283792376518E-002,7.302497047930956E-003,-7.904810309410095E-001,-6.070996522903442E-001,-3.794283792376518E-002,7.302497047930956E-003,-7.904810309410095E-001,-6.070996522903442E-001,
8.238666666666666E+008,-4.296437278389931E-002,4.324484616518021E-003,-7.921336293220520E-001,-5.770641565322876E-001,-4.296437278389931E-002,4.324484616518021E-003,-7.921336293220520E-001,-5.770641565322876E-001,
8.322333333333334E+008,-5.129253119230270E-002,5.114598665386438E-003,-8.131314516067505E-001,-5.592496395111084E-001,-5.129253119230270E-002,5.114598665386438E-003,-8.131314516067505E-001,-5.592496395111084E-001,
8.406000000000000E+008,-5.839962512254715E-002,1.005103997886181E-002,-8.235194683074951E-001,-5.466588735580444E-001,-5.839962512254715E-002,1.005103997886181E-002,-8.235194683074951E-001,-5.466588735580444E-001,
8.489666666666668E+008,-6.295345723628998E-002,1.693857274949551E-002,-8.359131217002869E-001,-5.317700505256653E-001,-6.295345723628998E-002,1.693857274949551E-002,-8.359131217002869E-001,-5.317700505256653E-001,
8.573333333333334E+008,-6.153637915849686E-002,2.513924054801464E-002,-8.524062037467957E-001,-4.926767647266388E-001,-6.153637915849686E-002,2.513924054801464E-002,-8.524062037467957E-001,-4.926767647266388E-001,
8.657000000000000E+008,-5.587669461965561E-002,3.331705182790756E-002,-8.695871233940125E-001,-4.703716933727264E-001,-5.587669461965561E-002,3.331705182790756E-002,-8.695871233940125E-001,-4.703716933727264E-001,
8.740666666666668E+008,-4.867417365312576E-002,3.644791245460510E-002,-8.657907843589783E-001,-4.606689214706421E-001,-4.867417365312576E-002,3.644791245460510E-002,-8.657907843589783E-001,-4.606689214706421E-001,
8.824333333333334E+008,-3.945313766598702E-002,3.656721487641335E-002,-8.855574727058411E-001,-4.463062286376953E-001,-3.945313766598702E-002,3.656721487641335E-002,-8.855574727058411E-001,-4.463062286376953E-001,
8.908000000000000E+008,-3.153211995959282E-002,3.265360742807388E-002,-8.873645067214966E-001,-4.138603508472443E-001,-3.153211995959282E-002,3.265360742807388E-002,-8.873645067214966E-001,-4.138603508472443E-001,
8.991666666666668E+008,-2.873758971691132E-002,2.623889036476612E-002,-9.002581834793091E-001,-3.894966542720795E-001,-2.873758971691132E-002,2.623889036476612E-002,-9.002581834793091E-001,-3.894966542720795E-001,
9.075333333333334E+008,-3.025156445801258E-002,2.062539942562580E-002,-9.329603910446167E-001,-3.667343854904175E-001,-3.025156445801258E-002,2.062539942562580E-002,-9.329603910446167E-001,-3.667343854904175E-001,
9.159000000000000E+008,-3.444151580333710E-002,1.906678825616837E-002,-9.362570047378540E-001,-3.393996655941010E-001,-3.444151580333710E-002,1.906678825616837E-002,-9.362570047378540E-001,-3.393996655941010E-001,
9.242666666666668E+008,-4.045326262712479E-002,1.688179373741150E-002,-9.408258199691773E-001,-3.245192766189575E-001,-4.045326262712479E-002,1.688179373741150E-002,-9.408258199691773E-001,-3.245192766189575E-001,
9.326333333333334E+008,-4.912570118904114E-002,1.862025260925293E-002,-9.623956084251404E-001,-3.008938133716583E-001,-4.912570118904114E-002,1.862025260925293E-002,-9.623956084251404E-001,-3.008938133716583E-001,
9.410000000000000E+008,-5.397892370820046E-002,2.398850768804550E-002,-9.548971652984619E-001,-2.669261097908020E-001,-5.397892370820046E-002,2.398850768804550E-002,-9.548971652984619E-001,-2.669261097908020E-001,
9.493666666666668E+008,-5.619033426046372E-002,3.149290755391121E-002,-9.538540244102478E-001,-2.504791319370270E-001,-5.619033426046372E-002,3.149290755391121E-002,-9.538540244102478E-001,-2.504791319370270E-001,
9.577333333333334E+008,-5.454222485423088E-002,4.091855511069298E-002,-9.694588184356690E-001,-2.275219857692719E-001,-5.454222485423088E-002,4.091855511069298E-002,-9.694588184356690E-001,-2.275219857692719E-001,
9.661000000000000E+008,-4.767420887947083E-002,4.932902380824089E-002,-9.689049124717712E-001,-2.052665054798126E-001,-4.767420887947083E-002,4.932902380824089E-002,-9.689049124717712E-001,-2.052665054798126E-001,
9.744666666666668E+008,-3.947836905717850E-002,5.033822730183601E-002,-9.750335812568665E-001,-1.784305870532990E-001,-3.947836905717850E-002,5.033822730183601E-002,-9.750335812568665E-001,-1.784305870532990E-001,
9.828333333333334E+008,-2.708840370178223E-002,4.877965524792671E-002,-9.781983494758606E-001,-1.591821461915970E-001,-2.708840370178223E-002,4.877965524792671E-002,-9.781983494758606E-001,-1.591821461915970E-001,
9.912000000000000E+008,-2.086697705090046E-002,4.300754889845848E-002,-9.781326055526733E-001,-1.305324435234070E-001,-2.086697705090046E-002,4.300754889845848E-002,-9.781326055526733E-001,-1.305324435234070E-001,
9.995666666666668E+008,-1.525810919702053E-002,3.576066344976425E-002,-9.952828288078308E-001,-9.093182533979416E-002,-1.525810919702053E-002,3.576066344976425E-002,-9.952828288078308E-001,-9.093182533979416E-002,
1.007933333333333E+009,-1.685057394206524E-002,2.758115157485008E-002,-9.939856529235840E-001,-7.694222033023834E-002,-1.685057394206524E-002,2.758115157485008E-002,-9.939856529235840E-001,-7.694222033023834E-002,
1.016300000000000E+009,-2.363427914679050E-002,2.334003522992134E-002,-9.969392418861389E-001,-5.030858516693115E-002,-2.363427914679050E-002,2.334003522992134E-002,-9.969392418861389E-001,-5.030858516693115E-002,
1.024666666666667E+009,-3.188294544816017E-002,1.836517080664635E-002,-9.976061582565308E-001,-1.947373896837235E-002,-3.188294544816017E-002,1.836517080664635E-002,-9.976061582565308E-001,-1.947373896837235E-002,
1.033033333333333E+009,-3.960898518562317E-002,2.243958413600922E-002,-9.963883161544800E-001,-6.814504158683121E-004,-3.960898518562317E-002,2.243958413600922E-002,-9.963883161544800E-001,-6.814504158683121E-004,
1.041400000000000E+009,-4.638842120766640E-002,2.997463755309582E-002,-9.814325571060181E-001,3.864119201898575E-002,-4.638842120766640E-002,2.997463755309582E-002,-9.814325571060181E-001,3.864119201898575E-002,
1.049766666666667E+009,-4.791033640503883E-002,3.970363736152649E-002,-9.922121763229370E-001,5.632818490266800E-002,-4.791033640503883E-002,3.970363736152649E-002,-9.922121763229370E-001,5.632818490266800E-002,
1.058133333333333E+009,-4.300909116864204E-002,4.815224185585976E-002,-9.883347153663635E-001,7.500792294740677E-002,-4.300909116864204E-002,4.815224185585976E-002,-9.883347153663635E-001,7.500792294740677E-002,
1.066500000000000E+009,-3.354123979806900E-002,5.450882762670517E-002,-9.964165687561035E-001,1.118047535419464E-001,-3.354123979806900E-002,5.450882762670517E-002,-9.964165687561035E-001,1.118047535419464E-001,
1.074866666666667E+009,-2.307571470737457E-002,5.306917056441307E-002,-9.790985584259033E-001,1.299971044063568E-001,-2.307571470737457E-002,5.306917056441307E-002,-9.790985584259033E-001,1.299971044063568E-001,
1.083233333333334E+009,-1.235760655254126E-002,4.403678700327873E-002,-9.771456718444824E-001,1.541409492492676E-001,-1.235760655254126E-002,4.403678700327873E-002,-9.771456718444824E-001,1.541409492492676E-001,
1.091600000000000E+009,-7.098211906850338E-003,3.499375283718109E-002,-9.698138833045960E-001,1.753703802824020E-001,-7.098211906850338E-003,3.499375283718109E-002,-9.698138833045960E-001,1.753703802824020E-001,
1.099966666666667E+009,-6.750904954969883E-003,2.329655177891254E-002,-9.716904163360596E-001,2.144165933132172E-001,-6.750904954969883E-003,2.329655177891254E-002,-9.716904163360596E-001,2.144165933132172E-001,
1.108333333333334E+009,-1.704332046210766E-002,1.374471560120583E-002,-9.497408270835877E-001,2.153397947549820E-001,-1.704332046210766E-002,1.374471560120583E-002,-9.497408270835877E-001,2.153397947549820E-001,
1.116700000000000E+009,-2.866370603442192E-002,1.535968948155642E-002,-9.486442208290100E-001,2.665495872497559E-001,-2.866370603442192E-002,1.535968948155642E-002,-9.486442208290100E-001,2.665495872497559E-001,
1.125066666666667E+009,-4.362593591213226E-002,1.739257387816906E-002,-9.545341134071350E-001,2.751073539257050E-001,-4.362593591213226E-002,1.739257387816906E-002,-9.545341134071350E-001,2.751073539257050E-001,
1.133433333333334E+009,-5.283471941947937E-002,3.164773434400559E-002,-9.544880986213684E-001,2.986586689949036E-001,-5.283471941947937E-002,3.164773434400559E-002,-9.544880986213684E-001,2.986586689949036E-001,
1.141800000000000E+009,-5.392269045114517E-002,4.484114795923233E-002,-9.263321161270142E-001,3.178260922431946E-001,-5.392269045114517E-002,4.484114795923233E-002,-9.263321161270142E-001,3.178260922431946E-001,
1.150166666666667E+009,-4.821395501494408E-002,6.200125813484192E-002,-9.093937277793884E-001,3.498004376888275E-001,-4.821395501494408E-002,6.200125813484192E-002,-9.093937277793884E-001,3.498004376888275E-001,
1.158533333333334E+009,-3.406937792897224E-002,7.083266973495483E-002,-9.115693569183350E-001,3.749724626541138E-001,-3.406937792897224E-002,7.083266973495483E-002,-9.115693569183350E-001,3.749724626541138E-001,
1.166900000000000E+009,-1.590193063020706E-002,7.142785191535950E-002,-9.041163921356201E-001,4.043656885623932E-001,-1.590193063020706E-002,7.142785191535950E-002,-9.041163921356201E-001,4.043656885623932E-001,
1.175266666666667E+009,2.824205148499459E-004,6.092608347535133E-002,-8.956649303436279E-001,4.107011854648590E-001,2.824205148499459E-004,6.092608347535133E-002,-8.956649303436279E-001,4.107011854648590E-001,
1.183633333333334E+009,1.131656672805548E-002,4.633713513612747E-002,-8.865911960601807E-001,4.515945911407471E-001,1.131656672805548E-002,4.633713513612747E-002,-8.865911960601807E-001,4.515945911407471E-001,
1.192000000000000E+009,1.162164006382227E-002,2.684293501079083E-002,-8.748201727867127E-001,4.612776339054108E-001,1.162164006382227E-002,2.684293501079083E-002,-8.748201727867127E-001,4.612776339054108E-001,
1.200366666666667E+009,3.440630971454084E-004,1.261436939239502E-002,-8.655235767364502E-001,4.880485236644745E-001,3.440630971454084E-004,1.261436939239502E-002,-8.655235767364502E-001,4.880485236644745E-001,
1.208733333333334E+009,-1.519947219640017E-002,4.134776070713997E-003,-8.597194552421570E-001,5.064226388931274E-001,-1.519947219640017E-002,4.134776070713997E-003,-8.597194552421570E-001,5.064226388931274E-001,
1.217100000000000E+009,-3.360189869999886E-002,1.014084182679653E-002,-8.410787582397461E-001,5.260535478591919E-001,-3.360189869999886E-002,1.014084182679653E-002,-8.410787582397461E-001,5.260535478591919E-001,
1.225466666666667E+009,-4.437112435698509E-002,2.139590680599213E-002,-8.158616423606873E-001,5.544283390045166E-001,-4.437112435698509E-002,2.139590680599213E-002,-8.158616423606873E-001,5.544283390045166E-001,
1.233833333333334E+009,-5.130379274487495E-002,3.891567140817642E-002,-7.993600964546204E-001,5.713294744491577E-001,-5.130379274487495E-002,3.891567140817642E-002,-7.993600964546204E-001,5.713294744491577E-001,
1.242200000000000E+009,-4.773558303713799E-002,5.738998576998711E-002,-7.843378782272339E-001,5.822249054908752E-001,-4.773558303713799E-002,5.738998576998711E-002,-7.843378782272339E-001,5.822249054908752E-001,
1.250566666666667E+009,-3.294120728969574E-002,6.886893510818481E-002,-7.597946524620056E-001,6.097511053085327E-001,-3.294120728969574E-002,6.886893510818481E-002,-7.597946524620056E-001,6.097511053085327E-001,
1.258933333333334E+009,-1.379122864454985E-002,7.130905985832214E-002,-7.680753469467163E-001,6.328995227813721E-001,-1.379122864454985E-002,7.130905985832214E-002,-7.680753469467163E-001,6.328995227813721E-001,
1.267300000000000E+009,4.641324747353792E-003,6.165945157408714E-002,-7.515332102775574E-001,6.434637904167175E-001,4.641324747353792E-003,6.165945157408714E-002,-7.515332102775574E-001,6.434637904167175E-001,
1.275666666666667E+009,1.407906133681536E-002,4.346289113163948E-002,-7.191653251647949E-001,6.690260171890259E-001,1.407906133681536E-002,4.346289113163948E-002,-7.191653251647949E-001,6.690260171890259E-001,
1.284033333333334E+009,1.406862773001194E-002,2.251644246280193E-002,-7.118955254554749E-001,6.929333209991455E-001,1.406862773001194E-002,2.251644246280193E-002,-7.118955254554749E-001,6.929333209991455E-001,
1.292400000000000E+009,2.617015270516276E-003,6.092043127864599E-003,-6.989028453826904E-001,7.082931399345398E-001,2.617015270516276E-003,6.092043127864599E-003,-6.989028453826904E-001,7.082931399345398E-001,
1.300766666666667E+009,-1.639491692185402E-002,-2.078837249428034E-003,-6.733922958374023E-001,7.241845130920410E-001,-1.639491692185402E-002,-2.078837249428034E-003,-6.733922958374023E-001,7.241845130920410E-001,
1.309133333333334E+009,-3.708153590559959E-002,2.231504535302520E-003,-6.593206524848938E-001,7.418261170387268E-001,-3.708153590559959E-002,2.231504535302520E-003,-6.593206524848938E-001,7.418261170387268E-001,
1.317500000000000E+009,-5.122051388025284E-002,1.653919741511345E-002,-6.339814662933350E-001,7.530198693275452E-001,-5.122051388025284E-002,1.653919741511345E-002,-6.339814662933350E-001,7.530198693275452E-001,
1.325866666666667E+009,-5.583956092596054E-002,3.728358820080757E-002,-6.204493641853333E-001,7.671688795089722E-001,-5.583956092596054E-002,3.728358820080757E-002,-6.204493641853333E-001,7.671688795089722E-001,
1.334233333333334E+009,-4.899791628122330E-002,5.618106201291084E-002,-5.912469625473023E-001,7.872854471206665E-001,-4.899791628122330E-002,5.618106201291084E-002,-5.912469625473023E-001,7.872854471206665E-001,
1.342600000000000E+009,-3.462943062186241E-002,6.663043051958084E-002,-5.737255811691284E-001,8.041886091232300E-001,-3.462943062186241E-002,6.663043051958084E-002,-5.737255811691284E-001,8.041886091232300E-001,
1.350966666666667E+009,-1.572224497795105E-002,6.732589006423950E-002,-5.457851290702820E-001,8.276768922805786E-001,-1.572224497795105E-002,6.732589006423950E-002,-5.457851290702820E-001,8.276768922805786E-001,
1.359333333333334E+009,-4.615842190105468E-004,5.705631896853447E-002,-5.348242521286011E-001,8.311181664466858E-001,-4.615842190105468E-004,5.705631896853447E-002,-5.348242521286011E-001,8.311181664466858E-001,
1.367700000000000E+009,4.041835665702820E-003,3.648834303021431E-002,-5.165129303932190E-001,8.414279222488403E-001,4.041835665702820E-003,3.648834303021431E-002,-5.165129303932190E-001,8.414279222488403E-001,
1.376066666666667E+009,-4.465474921744317E-004,1.862682402133942E-002,-4.993328154087067E-001,8.589046597480774E-001,-4.465474921744317E-004,1.862682402133942E-002,-4.993328154087067E-001,8.589046597480774E-001,
1.384433333333334E+009,-1.672478765249252E-002,2.442010678350925E-003,-4.716590046882629E-001,8.843799233436585E-001,-1.672478765249252E-002,2.442010678350925E-003,-4.716590046882629E-001,8.843799233436585E-001,
1.392800000000000E+009,-3.825748711824417E-002,1.090230303816497E-003,-4.552175104618073E-001,8.795971870422363E-001,-3.825748711824417E-002,1.090230303816497E-003,-4.552175104618073E-001,8.795971870422363E-001,
1.401166666666667E+009,-5.919540673494339E-002,1.222550868988037E-002,-4.324901401996613E-001,8.962467908859253E-001,-5.919540673494339E-002,1.222550868988037E-002,-4.324901401996613E-001,8.962467908859253E-001,
1.409533333333334E+009,-7.089070975780487E-002,2.966023609042168E-002,-3.985159993171692E-001,9.057074189186096E-001,-7.089070975780487E-002,2.966023609042168E-002,-3.985159993171692E-001,9.057074189186096E-001,
1.417900000000000E+009,-7.201784104108810E-002,5.597331374883652E-002,-3.867506980895996E-001,9.003019928932190E-001,-7.201784104108810E-002,5.597331374883652E-002,-3.867506980895996E-001,9.003019928932190E-001,
1.426266666666667E+009,-5.917101353406906E-002,7.494689524173737E-002,-3.542170524597168E-001,9.210355877876282E-001,-5.917101353406906E-002,7.494689524173737E-002,-3.542170524597168E-001,9.210355877876282E-001,
1.434633333333334E+009,-4.065242409706116E-002,8.748754113912582E-002,-3.242185711860657E-001,9.315274357795715E-001,-4.065242409706116E-002,8.748754113912582E-002,-3.242185711860657E-001,9.315274357795715E-001,
1.443000000000000E+009,-1.836447604000568E-002,8.752865344285965E-002,-3.101183474063873E-001,9.361523389816284E-001,-1.836447604000568E-002,8.752865344285965E-002,-3.101183474063873E-001,9.361523389816284E-001,
1.451366666666667E+009,-2.109355758875608E-003,7.567701488733292E-002,-2.835363149642944E-001,9.397773742675781E-001,-2.109355758875608E-003,7.567701488733292E-002,-2.835363149642944E-001,9.397773742675781E-001,
1.459733333333334E+009,6.962264422327280E-003,5.568388476967812E-002,-2.612691521644592E-001,9.500894546508789E-001,6.962264422327280E-003,5.568388476967812E-002,-2.612691521644592E-001,9.500894546508789E-001,
