% Version 1.00
%
%freq[Hz],re:Trc1_S11,im:Trc1_S11,re:Trc2_S21,im:Trc2_S21,re:Trc3_S11,im:Trc3_S11,re:Trc4_S21,im:Trc4_S21,
6.900000000000000E+008,-5.327933281660080E-002,2.036004094406962E-003,-4.999762773513794E-001,-8.530463576316834E-001,-5.327933281660080E-002,2.036004094406962E-003,-4.999762773513794E-001,-8.530463576316834E-001,
6.983666666666666E+008,-4.418184980750084E-002,2.017846098169684E-003,-5.229399800300598E-001,-8.397825360298157E-001,-4.418184980750084E-002,2.017846098169684E-003,-5.229399800300598E-001,-8.397825360298157E-001,
7.067333333333334E+008,-3.880624473094940E-002,-3.477776888757944E-003,-5.655478835105896E-001,-7.784202694892883E-001,-3.880624473094940E-002,-3.477776888757944E-003,-5.655478835105896E-001,-7.784202694892883E-001,
7.151000000000000E+008,-3.983965888619423E-002,-1.098745130002499E-002,-5.874456167221069E-001,-7.925416231155396E-001,-3.983965888619423E-002,-1.098745130002499E-002,-5.874456167221069E-001,-7.925416231155396E-001,
7.234666666666666E+008,-4.393374174833298E-002,-1.640841364860535E-002,-5.994785428047180E-001,-7.811197042465210E-001,-4.393374174833298E-002,-1.640841364860535E-002,-5.994785428047180E-001,-7.811197042465210E-001,
7.318333333333334E+008,-5.219570919871330E-002,-1.872658729553223E-002,-6.124773621559143E-001,-7.760926485061646E-001,-5.219570919871330E-002,-1.872658729553223E-002,-6.124773621559143E-001,-7.760926485061646E-001,
7.402000000000000E+008,-5.982169508934021E-002,-1.852388493716717E-002,-6.572113633155823E-001,-7.611330747604370E-001,-5.982169508934021E-002,-1.852388493716717E-002,-6.572113633155823E-001,-7.611330747604370E-001,
7.485666666666666E+008,-6.799208372831345E-002,-1.212464366108179E-002,-6.563249230384827E-001,-7.567442059516907E-001,-6.799208372831345E-002,-1.212464366108179E-002,-6.563249230384827E-001,-7.567442059516907E-001,
7.569333333333334E+008,-7.066049426794052E-002,-4.443527199327946E-003,-6.627845764160156E-001,-7.365288734436035E-001,-7.066049426794052E-002,-4.443527199327946E-003,-6.627845764160156E-001,-7.365288734436035E-001,
7.653000000000000E+008,-6.706091016530991E-002,3.482634900137782E-003,-6.781008243560791E-001,-7.155067324638367E-001,-6.706091016530991E-002,3.482634900137782E-003,-6.781008243560791E-001,-7.155067324638367E-001,
7.736666666666666E+008,-6.090473383665085E-002,9.242796339094639E-003,-7.141058444976807E-001,-6.915978789329529E-001,-6.090473383665085E-002,9.242796339094639E-003,-7.141058444976807E-001,-6.915978789329529E-001,
7.820333333333334E+008,-5.299309641122818E-002,1.227047666907311E-002,-7.269433140754700E-001,-6.787774562835693E-001,-5.299309641122818E-002,1.227047666907311E-002,-7.269433140754700E-001,-6.787774562835693E-001,
7.904000000000000E+008,-4.447403550148010E-002,1.106581650674343E-002,-7.282626628875732E-001,-6.600527167320252E-001,-4.447403550148010E-002,1.106581650674343E-002,-7.282626628875732E-001,-6.600527167320252E-001,
7.987666666666666E+008,-4.052814841270447E-002,5.452315323054791E-003,-7.671303749084473E-001,-6.339284181594849E-001,-4.052814841270447E-002,5.452315323054791E-003,-7.671303749084473E-001,-6.339284181594849E-001,
8.071333333333334E+008,-3.882160782814026E-002,7.203802233561873E-004,-7.721716165542603E-001,-6.217822432518005E-001,-3.882160782814026E-002,7.203802233561873E-004,-7.721716165542603E-001,-6.217822432518005E-001,
8.155000000000000E+008,-4.593047872185707E-002,-5.586408544331789E-003,-7.948837876319885E-001,-6.016647815704346E-001,-4.593047872185707E-002,-5.586408544331789E-003,-7.948837876319885E-001,-6.016647815704346E-001,
8.238666666666666E+008,-5.155675485730171E-002,-8.867328986525536E-003,-7.951156497001648E-001,-5.744125247001648E-001,-5.155675485730171E-002,-8.867328986525536E-003,-7.951156497001648E-001,-5.744125247001648E-001,
8.322333333333334E+008,-5.991125479340553E-002,-7.945874705910683E-003,-8.180141448974609E-001,-5.528278946876526E-001,-5.991125479340553E-002,-7.945874705910683E-003,-8.180141448974609E-001,-5.528278946876526E-001,
8.406000000000000E+008,-6.692299246788025E-002,-2.917723264545202E-003,-8.271667957305908E-001,-5.407990217208862E-001,-6.692299246788025E-002,-2.917723264545202E-003,-8.271667957305908E-001,-5.407990217208862E-001,
8.489666666666668E+008,-7.186672091484070E-002,4.001912660896778E-003,-8.374617695808411E-001,-5.247224569320679E-001,-7.186672091484070E-002,4.001912660896778E-003,-8.374617695808411E-001,-5.247224569320679E-001,
8.573333333333334E+008,-7.075345516204834E-002,1.178856287151575E-002,-8.549556136131287E-001,-4.839572608470917E-001,-7.075345516204834E-002,1.178856287151575E-002,-8.549556136131287E-001,-4.839572608470917E-001,
8.657000000000000E+008,-6.478400528430939E-002,1.951467618346214E-002,-8.710086345672607E-001,-4.659554958343506E-001,-6.478400528430939E-002,1.951467618346214E-002,-8.710086345672607E-001,-4.659554958343506E-001,
8.740666666666668E+008,-5.784028023481369E-002,2.276931516826153E-002,-8.699756264686585E-001,-4.543195068836212E-001,-5.784028023481369E-002,2.276931516826153E-002,-8.699756264686585E-001,-4.543195068836212E-001,
8.824333333333334E+008,-4.871195182204247E-002,2.238503284752369E-002,-8.869747519493103E-001,-4.393739104270935E-001,-4.871195182204247E-002,2.238503284752369E-002,-8.869747519493103E-001,-4.393739104270935E-001,
8.908000000000000E+008,-4.126506298780441E-002,1.820738986134529E-002,-8.885107636451721E-001,-4.056142270565033E-001,-4.126506298780441E-002,1.820738986134529E-002,-8.885107636451721E-001,-4.056142270565033E-001,
8.991666666666668E+008,-3.876919299364090E-002,1.185409910976887E-002,-9.028307199478149E-001,-3.813768923282623E-001,-3.876919299364090E-002,1.185409910976887E-002,-9.028307199478149E-001,-3.813768923282623E-001,
9.075333333333334E+008,-4.106657952070236E-002,6.052120123058558E-003,-9.337648153305054E-001,-3.569850027561188E-001,-4.106657952070236E-002,6.052120123058558E-003,-9.337648153305054E-001,-3.569850027561188E-001,
9.159000000000000E+008,-4.601094871759415E-002,4.778232425451279E-003,-9.374633431434631E-001,-3.311651647090912E-001,-4.601094871759415E-002,4.778232425451279E-003,-9.374633431434631E-001,-3.311651647090912E-001,
9.242666666666668E+008,-5.233743786811829E-002,2.747373189777136E-003,-9.440442323684692E-001,-3.143362402915955E-001,-5.233743786811829E-002,2.747373189777136E-003,-9.440442323684692E-001,-3.143362402915955E-001,
9.326333333333334E+008,-6.119787320494652E-002,4.488924983888865E-003,-9.615721702575684E-001,-2.929308712482452E-001,-6.119787320494652E-002,4.488924983888865E-003,-9.615721702575684E-001,-2.929308712482452E-001,
9.410000000000000E+008,-6.603197753429413E-002,1.014383323490620E-002,-9.583182930946350E-001,-2.570134401321411E-001,-6.603197753429413E-002,1.014383323490620E-002,-9.583182930946350E-001,-2.570134401321411E-001,
9.493666666666668E+008,-6.858365982770920E-002,1.751337572932243E-002,-9.559500813484192E-001,-2.417741715908051E-001,-6.858365982770920E-002,1.751337572932243E-002,-9.559500813484192E-001,-2.417741715908051E-001,
9.577333333333334E+008,-6.706132739782333E-002,2.641927078366280E-002,-9.695746302604675E-001,-2.177786976099014E-001,-6.706132739782333E-002,2.641927078366280E-002,-9.695746302604675E-001,-2.177786976099014E-001,
9.661000000000000E+008,-6.088421866297722E-002,3.448430821299553E-002,-9.703962206840515E-001,-1.946517825126648E-001,-6.088421866297722E-002,3.448430821299553E-002,-9.703962206840515E-001,-1.946517825126648E-001,
9.744666666666668E+008,-5.260085687041283E-002,3.564194962382317E-002,-9.746041893959045E-001,-1.721931248903275E-001,-5.260085687041283E-002,3.564194962382317E-002,-9.746041893959045E-001,-1.721931248903275E-001,
9.828333333333334E+008,-4.057104513049126E-002,3.334988653659821E-002,-9.797729849815369E-001,-1.509282588958740E-001,-4.057104513049126E-002,3.334988653659821E-002,-9.797729849815369E-001,-1.509282588958740E-001,
9.912000000000000E+008,-3.484440222382546E-002,2.750642783939838E-002,-9.780098199844360E-001,-1.217654794454575E-001,-3.484440222382546E-002,2.750642783939838E-002,-9.780098199844360E-001,-1.217654794454575E-001,
9.995666666666668E+008,-2.961325831711292E-002,2.075682766735554E-002,-9.969290494918823E-001,-8.373427391052246E-002,-2.961325831711292E-002,2.075682766735554E-002,-9.969290494918823E-001,-8.373427391052246E-002,
1.007933333333333E+009,-3.164897486567497E-002,1.233535259962082E-002,-9.928023815155029E-001,-7.005628943443298E-002,-3.164897486567497E-002,1.233535259962082E-002,-9.928023815155029E-001,-7.005628943443298E-002,
1.016300000000000E+009,-3.892487660050392E-002,8.469210006296635E-003,-9.953279495239258E-001,-4.118164256215096E-002,-3.892487660050392E-002,8.469210006296635E-003,-9.953279495239258E-001,-4.118164256215096E-002,
1.024666666666667E+009,-4.787355288863182E-002,3.458967199549079E-003,-9.958027601242065E-001,-8.866531774401665E-003,-4.787355288863182E-002,3.458967199549079E-003,-9.958027601242065E-001,-8.866531774401665E-003,
1.033033333333333E+009,-5.588098615407944E-002,8.081222884356976E-003,-9.954591989517212E-001,1.026226580142975E-002,-5.588098615407944E-002,8.081222884356976E-003,-9.954591989517212E-001,1.026226580142975E-002,
1.041400000000000E+009,-6.264854222536087E-002,1.537342742085457E-002,-9.817617535591126E-001,4.603055864572525E-002,-6.264854222536087E-002,1.537342742085457E-002,-9.817617535591126E-001,4.603055864572525E-002,
1.049766666666667E+009,-6.449040025472641E-002,2.545951120555401E-002,-9.911434650421143E-001,6.363154947757721E-002,-6.449040025472641E-002,2.545951120555401E-002,-9.911434650421143E-001,6.363154947757721E-002,
1.058133333333333E+009,-5.980806425213814E-002,3.309262171387672E-002,-9.870380163192749E-001,8.322943747043610E-002,-5.980806425213814E-002,3.309262171387672E-002,-9.870380163192749E-001,8.322943747043610E-002,
1.066500000000000E+009,-5.087814852595329E-002,3.936388716101646E-002,-9.942257404327393E-001,1.203443631529808E-001,-5.087814852595329E-002,3.936388716101646E-002,-9.942257404327393E-001,1.203443631529808E-001,
1.074866666666667E+009,-4.044355452060700E-002,3.750610351562500E-002,-9.766123890876770E-001,1.402667164802551E-001,-4.044355452060700E-002,3.750610351562500E-002,-9.766123890876770E-001,1.402667164802551E-001,
1.083233333333334E+009,-3.037727251648903E-002,2.860696241259575E-002,-9.768473505973816E-001,1.611634790897369E-001,-3.037727251648903E-002,2.860696241259575E-002,-9.768473505973816E-001,1.611634790897369E-001,
1.091600000000000E+009,-2.559496834874153E-002,1.940086297690868E-002,-9.669507145881653E-001,1.864166855812073E-001,-2.559496834874153E-002,1.940086297690868E-002,-9.669507145881653E-001,1.864166855812073E-001,
1.099966666666667E+009,-2.677747793495655E-002,7.602125871926546E-003,-9.697383642196655E-001,2.254992425441742E-001,-2.677747793495655E-002,7.602125871926546E-003,-9.697383642196655E-001,2.254992425441742E-001,
1.108333333333334E+009,-3.700562193989754E-002,-1.324131153523922E-003,-9.457151889801025E-001,2.285140603780747E-001,-3.700562193989754E-002,-1.324131153523922E-003,-9.457151889801025E-001,2.285140603780747E-001,
1.116700000000000E+009,-4.933825135231018E-002,1.088431570678949E-003,-9.468615651130676E-001,2.749552726745606E-001,-4.933825135231018E-002,1.088431570678949E-003,-9.468615651130676E-001,2.749552726745606E-001,
1.125066666666667E+009,-6.391142308712006E-002,2.904639113694429E-003,-9.487090110778809E-001,2.847005128860474E-001,-6.391142308712006E-002,2.904639113694429E-003,-9.487090110778809E-001,2.847005128860474E-001,
1.133433333333334E+009,-7.329834252595902E-002,1.740971393883228E-002,-9.484907388687134E-001,3.081103563308716E-001,-7.329834252595902E-002,1.740971393883228E-002,-9.484907388687134E-001,3.081103563308716E-001,
1.141800000000000E+009,-7.461708784103394E-002,3.104477003216744E-002,-9.207705855369568E-001,3.268692195415497E-001,-7.461708784103394E-002,3.104477003216744E-002,-9.207705855369568E-001,3.268692195415497E-001,
1.150166666666667E+009,-6.947100907564163E-002,4.778571426868439E-002,-9.074925184249878E-001,3.589897751808167E-001,-6.947100907564163E-002,4.778571426868439E-002,-9.074925184249878E-001,3.589897751808167E-001,
1.158533333333334E+009,-5.566153302788734E-002,5.611624196171761E-002,-9.075505137443543E-001,3.819661140441895E-001,-5.566153302788734E-002,5.611624196171761E-002,-9.075505137443543E-001,3.819661140441895E-001,
1.166900000000000E+009,-3.775054588913918E-002,5.626434087753296E-002,-8.990479111671448E-001,4.137627482414246E-001,-3.775054588913918E-002,5.626434087753296E-002,-8.990479111671448E-001,4.137627482414246E-001,
1.175266666666667E+009,-2.240022458136082E-002,4.559927806258202E-002,-8.902573585510254E-001,4.219633638858795E-001,-2.240022458136082E-002,4.559927806258202E-002,-8.902573585510254E-001,4.219633638858795E-001,
1.183633333333334E+009,-1.237999275326729E-002,3.122802637517452E-002,-8.804503679275513E-001,4.602070152759552E-001,-1.237999275326729E-002,3.122802637517452E-002,-8.804503679275513E-001,4.602070152759552E-001,
1.192000000000000E+009,-1.250446774065495E-002,1.168543472886086E-002,-8.700338006019592E-001,4.695424139499664E-001,-1.250446774065495E-002,1.168543472886086E-002,-8.700338006019592E-001,4.695424139499664E-001,
1.200366666666667E+009,-2.436365373432636E-002,-2.073359675705433E-003,-8.594279885292053E-001,4.996721148490906E-001,-2.436365373432636E-002,-2.073359675705433E-003,-8.594279885292053E-001,4.996721148490906E-001,
1.208733333333334E+009,-4.093006998300552E-002,-1.030841935425997E-002,-8.538961410522461E-001,5.165320634841919E-001,-4.093006998300552E-002,-1.030841935425997E-002,-8.538961410522461E-001,5.165320634841919E-001,
1.217100000000000E+009,-5.926976352930069E-002,-3.346812212839723E-003,-8.326758146286011E-001,5.347707271575928E-001,-5.926976352930069E-002,-3.346812212839723E-003,-8.326758146286011E-001,5.347707271575928E-001,
1.225466666666667E+009,-7.025270909070969E-002,8.759475313127041E-003,-8.053318858146668E-001,5.632416009902954E-001,-7.025270909070969E-002,8.759475313127041E-003,-8.053318858146668E-001,5.632416009902954E-001,
1.233833333333334E+009,-7.716451585292816E-002,2.604833617806435E-002,-7.911090850830078E-001,5.789183378219605E-001,-7.716451585292816E-002,2.604833617806435E-002,-7.911090850830078E-001,5.789183378219605E-001,
1.242200000000000E+009,-7.401278614997864E-002,4.419822618365288E-002,-7.778342366218567E-001,5.901994705200195E-001,-7.401278614997864E-002,4.419822618365288E-002,-7.778342366218567E-001,5.901994705200195E-001,
1.250566666666667E+009,-5.945775657892227E-002,5.566535890102387E-002,-7.528284192085266E-001,6.185726523399353E-001,-5.945775657892227E-002,5.566535890102387E-002,-7.528284192085266E-001,6.185726523399353E-001,
1.258933333333334E+009,-4.093893617391586E-002,5.772260203957558E-002,-7.633302807807922E-001,6.383066773414612E-001,-4.093893617391586E-002,5.772260203957558E-002,-7.633302807807922E-001,6.383066773414612E-001,
1.267300000000000E+009,-2.341699600219727E-002,4.796916246414185E-002,-7.437604665756226E-001,6.522680521011353E-001,-2.341699600219727E-002,4.796916246414185E-002,-7.437604665756226E-001,6.522680521011353E-001,
1.275666666666667E+009,-1.472432911396027E-002,2.936264686286449E-002,-7.099869847297669E-001,6.771405935287476E-001,-1.472432911396027E-002,2.936264686286449E-002,-7.099869847297669E-001,6.771405935287476E-001,
1.284033333333334E+009,-1.622109860181809E-002,9.022330865263939E-003,-7.017301917076111E-001,7.022338509559631E-001,-1.622109860181809E-002,9.022330865263939E-003,-7.017301917076111E-001,7.022338509559631E-001,
1.292400000000000E+009,-2.853030338883400E-002,-6.713194772601128E-003,-6.874073147773743E-001,7.161092758178711E-001,-2.853030338883400E-002,-6.713194772601128E-003,-6.874073147773743E-001,7.161092758178711E-001,
1.300766666666667E+009,-4.751747474074364E-002,-1.409043464809656E-002,-6.611157059669495E-001,7.325499057769775E-001,-4.751747474074364E-002,-1.409043464809656E-002,-6.611157059669495E-001,7.325499057769775E-001,
1.309133333333334E+009,-6.832598149776459E-002,-8.663596585392952E-003,-6.460695266723633E-001,7.497687339782715E-001,-6.832598149776459E-002,-8.663596585392952E-003,-6.460695266723633E-001,7.497687339782715E-001,
1.317500000000000E+009,-8.300576359033585E-002,6.008122116327286E-003,-6.222202181816101E-001,7.611849308013916E-001,-8.300576359033585E-002,6.008122116327286E-003,-6.222202181816101E-001,7.611849308013916E-001,
1.325866666666667E+009,-8.723482489585877E-002,2.732948400080204E-002,-6.051281094551086E-001,7.744525074958801E-001,-8.723482489585877E-002,2.732948400080204E-002,-6.051281094551086E-001,7.744525074958801E-001,
1.334233333333334E+009,-8.057221770286560E-002,4.646073281764984E-002,-5.804034471511841E-001,7.919955849647522E-001,-8.057221770286560E-002,4.646073281764984E-002,-5.804034471511841E-001,7.919955849647522E-001,
1.342600000000000E+009,-6.668036431074143E-002,5.686205998063088E-002,-5.624824166297913E-001,8.098651170730591E-001,-6.668036431074143E-002,5.686205998063088E-002,-5.624824166297913E-001,8.098651170730591E-001,
1.350966666666667E+009,-4.859421774744988E-002,5.715219676494598E-002,-5.361117124557495E-001,8.369167447090149E-001,-4.859421774744988E-002,5.715219676494598E-002,-5.361117124557495E-001,8.369167447090149E-001,
1.359333333333334E+009,-3.454353660345078E-002,4.636453092098236E-002,-5.236864686012268E-001,8.387263417243958E-001,-3.454353660345078E-002,4.636453092098236E-002,-5.236864686012268E-001,8.387263417243958E-001,
1.367700000000000E+009,-3.062355518341065E-002,2.624775283038616E-002,-5.037754178047180E-001,8.490715026855469E-001,-3.062355518341065E-002,2.624775283038616E-002,-5.037754178047180E-001,8.490715026855469E-001,
1.376066666666667E+009,-3.566882759332657E-002,9.103107266128063E-003,-4.867267012596130E-001,8.680180311203003E-001,-3.566882759332657E-002,9.103107266128063E-003,-4.867267012596130E-001,8.680180311203003E-001,
1.384433333333334E+009,-5.331695079803467E-002,-6.088266149163246E-003,-4.613616466522217E-001,8.901947140693665E-001,-5.331695079803467E-002,-6.088266149163246E-003,-4.613616466522217E-001,8.901947140693665E-001,
1.392800000000000E+009,-7.521472126245499E-002,-6.626428104937077E-003,-4.418650269508362E-001,8.839650154113770E-001,-7.521472126245499E-002,-6.626428104937077E-003,-4.418650269508362E-001,8.839650154113770E-001,
1.401166666666667E+009,-9.600488841533661E-002,5.259732715785503E-003,-4.172448217868805E-001,9.003332853317261E-001,-9.600488841533661E-002,5.259732715785503E-003,-4.172448217868805E-001,9.003332853317261E-001,
1.409533333333334E+009,-1.076880991458893E-001,2.308242581784725E-002,-3.852196335792542E-001,9.093157052993774E-001,-1.076880991458893E-001,2.308242581784725E-002,-3.852196335792542E-001,9.093157052993774E-001,
1.417900000000000E+009,-1.083125025033951E-001,4.971794784069061E-002,-3.736052811145783E-001,8.990842700004578E-001,-1.083125025033951E-001,4.971794784069061E-002,-3.736052811145783E-001,8.990842700004578E-001,
1.426266666666667E+009,-9.620488435029984E-002,6.943886727094650E-002,-3.441065847873688E-001,9.258987307548523E-001,-9.620488435029984E-002,6.943886727094650E-002,-3.441065847873688E-001,9.258987307548523E-001,
1.434633333333334E+009,-7.750760018825531E-002,8.151476085186005E-002,-3.119636476039887E-001,9.334160089492798E-001,-7.750760018825531E-002,8.151476085186005E-002,-3.119636476039887E-001,9.334160089492798E-001,
1.443000000000000E+009,-5.616782605648041E-002,8.193098753690720E-002,-2.979212105274200E-001,9.397340416908264E-001,-5.616782605648041E-002,8.193098753690720E-002,-2.979212105274200E-001,9.397340416908264E-001,
1.451366666666667E+009,-4.056350886821747E-002,7.017877697944641E-002,-2.687018215656281E-001,9.432545304298401E-001,-4.056350886821747E-002,7.017877697944641E-002,-2.687018215656281E-001,9.432545304298401E-001,
1.459733333333334E+009,-3.304750844836235E-002,5.024234205484390E-002,-2.509191632270813E-001,9.513324499130249E-001,-3.304750844836235E-002,5.024234205484390E-002,-2.509191632270813E-001,9.513324499130249E-001,
