% Version 1.00
%
%freq[Hz],re:Trc1_S11,im:Trc1_S11,re:Trc2_S21,im:Trc2_S21,re:Trc3_S11,im:Trc3_S11,re:Trc4_S21,im:Trc4_S21,
6.900000000000000E+008,-1.672073826193810E-002,1.578865572810173E-002,-4.667563736438751E-001,-8.715091347694397E-001,-1.672073826193810E-002,1.578865572810173E-002,-4.667563736438751E-001,-8.715091347694397E-001,
6.983666666666666E+008,-7.408426608890295E-003,1.646764017641544E-002,-4.897916316986084E-001,-8.645309805870056E-001,-7.408426608890295E-003,1.646764017641544E-002,-4.897916316986084E-001,-8.645309805870056E-001,
7.067333333333334E+008,-8.439768571406603E-004,1.125822309404612E-002,-5.365806221961975E-001,-8.025465607643127E-001,-8.439768571406603E-004,1.125822309404612E-002,-5.365806221961975E-001,-8.025465607643127E-001,
7.151000000000000E+008,-3.206984547432512E-004,3.088182071223855E-003,-5.548292994499207E-001,-8.174767494201660E-001,-3.206984547432512E-004,3.088182071223855E-003,-5.548292994499207E-001,-8.174767494201660E-001,
7.234666666666666E+008,-3.862200537696481E-003,-2.602047054097056E-003,-5.669380426406860E-001,-8.066532611846924E-001,-3.862200537696481E-003,-2.602047054097056E-003,-5.669380426406860E-001,-8.066532611846924E-001,
7.318333333333334E+008,-1.105495356023312E-002,-5.815116688609123E-003,-5.788739323616028E-001,-8.054910898208618E-001,-1.105495356023312E-002,-5.815116688609123E-003,-5.788739323616028E-001,-8.054910898208618E-001,
7.402000000000000E+008,-1.809185370802879E-002,-6.007179617881775E-003,-6.258375048637390E-001,-7.899968624114990E-001,-1.809185370802879E-002,-6.007179617881775E-003,-6.258375048637390E-001,-7.899968624114990E-001,
7.485666666666666E+008,-2.605379186570644E-002,-1.031805528327823E-003,-6.252763867378235E-001,-7.859650850296021E-001,-2.605379186570644E-002,-1.031805528327823E-003,-6.252763867378235E-001,-7.859650850296021E-001,
7.569333333333334E+008,-2.864410355687141E-002,6.210133899003267E-003,-6.342584490776062E-001,-7.658684849739075E-001,-2.864410355687141E-002,6.210133899003267E-003,-6.342584490776062E-001,-7.658684849739075E-001,
7.653000000000000E+008,-2.494747377932072E-002,1.328570861369371E-002,-6.522713303565979E-001,-7.468922138214111E-001,-2.494747377932072E-002,1.328570861369371E-002,-6.522713303565979E-001,-7.468922138214111E-001,
7.736666666666666E+008,-1.873399317264557E-002,1.929780282080174E-002,-6.872497797012329E-001,-7.231127619743347E-001,-1.873399317264557E-002,1.929780282080174E-002,-6.872497797012329E-001,-7.231127619743347E-001,
7.820333333333334E+008,-1.064021978527308E-002,2.193396165966988E-002,-6.990114450454712E-001,-7.125482559204102E-001,-1.064021978527308E-002,2.193396165966988E-002,-6.990114450454712E-001,-7.125482559204102E-001,
7.904000000000000E+008,-7.275874377228320E-004,2.084367163479328E-002,-7.027900815010071E-001,-6.905904412269592E-001,-7.275874377228320E-004,2.084367163479328E-002,-7.027900815010071E-001,-6.905904412269592E-001,
7.987666666666666E+008,3.831942100077868E-003,1.549552846699953E-002,-7.391801476478577E-001,-6.714898347854614E-001,3.831942100077868E-003,1.549552846699953E-002,-7.391801476478577E-001,-6.714898347854614E-001,
8.071333333333334E+008,6.510813254863024E-003,1.008333265781403E-002,-7.439228892326355E-001,-6.606543660163879E-001,6.510813254863024E-003,1.008333265781403E-002,-7.439228892326355E-001,-6.606543660163879E-001,
8.155000000000000E+008,9.117140434682369E-004,3.493743948638439E-003,-7.678104043006897E-001,-6.396948695182800E-001,9.117140434682369E-004,3.493743948638439E-003,-7.678104043006897E-001,-6.396948695182800E-001,
8.238666666666666E+008,-3.667292185127735E-003,-9.380738483741880E-004,-7.697650790214539E-001,-6.112886667251587E-001,-3.667292185127735E-003,-9.380738483741880E-004,-7.697650790214539E-001,-6.112886667251587E-001,
8.322333333333334E+008,-1.148940529674292E-002,-1.091203186661005E-003,-7.883894443511963E-001,-5.946548581123352E-001,-1.148940529674292E-002,-1.091203186661005E-003,-7.883894443511963E-001,-5.946548581123352E-001,
8.406000000000000E+008,-1.840475201606751E-002,2.699275268241763E-003,-8.045967221260071E-001,-5.824716687202454E-001,-1.840475201606751E-002,2.699275268241763E-003,-8.045967221260071E-001,-5.824716687202454E-001,
8.489666666666668E+008,-2.332410216331482E-002,9.015771560370922E-003,-8.139799237251282E-001,-5.669741034507752E-001,-2.332410216331482E-002,9.015771560370922E-003,-8.139799237251282E-001,-5.669741034507752E-001,
8.573333333333334E+008,-2.244345657527447E-002,1.661292277276516E-002,-8.342954516410828E-001,-5.281370282173157E-001,-2.244345657527447E-002,1.661292277276516E-002,-8.342954516410828E-001,-5.281370282173157E-001,
8.657000000000000E+008,-1.620208099484444E-002,2.350336499512196E-002,-8.502792716026306E-001,-5.087172985076904E-001,-1.620208099484444E-002,2.350336499512196E-002,-8.502792716026306E-001,-5.087172985076904E-001,
8.740666666666668E+008,-9.448539465665817E-003,2.670942991971970E-002,-8.490486145019531E-001,-4.972034990787506E-001,-9.448539465665817E-003,2.670942991971970E-002,-8.490486145019531E-001,-4.972034990787506E-001,
8.824333333333334E+008,-1.368851517327130E-004,2.650173194706440E-002,-8.671895265579224E-001,-4.831561446189880E-001,-1.368851517327130E-004,2.650173194706440E-002,-8.671895265579224E-001,-4.831561446189880E-001,
8.908000000000000E+008,8.181493729352951E-003,2.232935093343258E-002,-8.703385591506958E-001,-4.521718621253967E-001,8.181493729352951E-003,2.232935093343258E-002,-8.703385591506958E-001,-4.521718621253967E-001,
8.991666666666668E+008,1.193338632583618E-002,1.579733006656170E-002,-8.845360875129700E-001,-4.248044788837433E-001,1.193338632583618E-002,1.579733006656170E-002,-8.845360875129700E-001,-4.248044788837433E-001,
9.075333333333334E+008,1.171031966805458E-002,9.033172391355038E-003,-9.154264330863953E-001,-4.079973399639130E-001,1.171031966805458E-002,9.033172391355038E-003,-9.154264330863953E-001,-4.079973399639130E-001,
9.159000000000000E+008,7.960940711200237E-003,6.530247163027525E-003,-9.218646883964539E-001,-3.790373206138611E-001,7.960940711200237E-003,6.530247163027525E-003,-9.218646883964539E-001,-3.790373206138611E-001,
9.242666666666668E+008,2.256568055599928E-003,3.158288309350610E-003,-9.289056062698364E-001,-3.653785288333893E-001,2.256568055599928E-003,3.158288309350610E-003,-9.289056062698364E-001,-3.653785288333893E-001,
9.326333333333334E+008,-6.231796462088823E-003,3.727821633219719E-003,-9.502233266830444E-001,-3.435025215148926E-001,-6.231796462088823E-003,3.727821633219719E-003,-9.502233266830444E-001,-3.435025215148926E-001,
9.410000000000000E+008,-1.103101484477520E-002,8.057519793510437E-003,-9.429392814636231E-001,-3.110027909278870E-001,-1.103101484477520E-002,8.057519793510437E-003,-9.429392814636231E-001,-3.110027909278870E-001,
9.493666666666668E+008,-1.408187299966812E-002,1.459862943738699E-002,-9.444581866264343E-001,-2.922911047935486E-001,-1.408187299966812E-002,1.459862943738699E-002,-9.444581866264343E-001,-2.922911047935486E-001,
9.577333333333334E+008,-1.310968119651079E-002,2.323648892343044E-002,-9.608206748962402E-001,-2.705093622207642E-001,-1.310968119651079E-002,2.323648892343044E-002,-9.608206748962402E-001,-2.705093622207642E-001,
9.661000000000000E+008,-6.505887024104595E-003,3.047731518745422E-002,-9.613848328590393E-001,-2.475089579820633E-001,-6.505887024104595E-003,3.047731518745422E-002,-9.613848328590393E-001,-2.475089579820633E-001,
9.744666666666668E+008,9.249654249288142E-004,3.212437033653259E-002,-9.679528474807739E-001,-2.231548875570297E-001,9.249654249288142E-004,3.212437033653259E-002,-9.679528474807739E-001,-2.231548875570297E-001,
9.828333333333334E+008,1.366611663252115E-002,3.027295693755150E-002,-9.716677665710449E-001,-2.038701474666596E-001,1.366611663252115E-002,3.027295693755150E-002,-9.716677665710449E-001,-2.038701474666596E-001,
9.912000000000000E+008,2.082741074264050E-002,2.456116676330566E-002,-9.729714989662170E-001,-1.757695823907852E-001,2.082741074264050E-002,2.456116676330566E-002,-9.729714989662170E-001,-1.757695823907852E-001,
9.995666666666668E+008,2.703872136771679E-002,1.683332957327366E-002,-9.900677800178528E-001,-1.384153515100479E-001,2.703872136771679E-002,1.683332957327366E-002,-9.900677800178528E-001,-1.384153515100479E-001,
1.007933333333333E+009,2.671496756374836E-002,7.955626584589481E-003,-9.906776547431946E-001,-1.260867118835449E-001,2.671496756374836E-002,7.955626584589481E-003,-9.906776547431946E-001,-1.260867118835449E-001,
1.016300000000000E+009,2.081257291138172E-002,2.014511730521917E-003,-9.934276342391968E-001,-9.846411645412445E-002,2.081257291138172E-002,2.014511730521917E-003,-9.934276342391968E-001,-9.846411645412445E-002,
1.024666666666667E+009,1.320699136704207E-002,-4.453911446034908E-003,-9.955211877822876E-001,-6.755834072828293E-002,1.320699136704207E-002,-4.453911446034908E-003,-9.955211877822876E-001,-6.755834072828293E-002,
1.033033333333333E+009,5.496661644428968E-003,-1.537310192361474E-003,-9.952633976936340E-001,-5.004610866308212E-002,5.496661644428968E-003,-1.537310192361474E-003,-9.952633976936340E-001,-5.004610866308212E-002,
1.041400000000000E+009,-2.209555590525270E-003,4.364178050309420E-003,-9.834517836570740E-001,-1.204617414623499E-002,-2.209555590525270E-003,4.364178050309420E-003,-9.834517836570740E-001,-1.204617414623499E-002,
1.049766666666667E+009,-4.861102905124426E-003,1.300793513655663E-002,-9.973204731941223E-001,7.856960408389568E-003,-4.861102905124426E-003,1.300793513655663E-002,-9.973204731941223E-001,7.856960408389568E-003,
1.058133333333333E+009,-8.509905310347676E-004,2.056733705103397E-002,-9.922782778739929E-001,2.548734284937382E-002,-8.509905310347676E-004,2.056733705103397E-002,-9.922782778739929E-001,2.548734284937382E-002,
1.066500000000000E+009,8.101694285869598E-003,2.631295658648014E-002,-1.001603126525879E+000,6.323822587728500E-002,8.101694285869598E-003,2.631295658648014E-002,-1.001603126525879E+000,6.323822587728500E-002,
1.074866666666667E+009,1.871936768293381E-002,2.539400756359100E-002,-9.870999455451965E-001,8.406819403171539E-002,1.871936768293381E-002,2.539400756359100E-002,-9.870999455451965E-001,8.406819403171539E-002,
1.083233333333334E+009,2.955752611160278E-002,1.614809036254883E-002,-9.863961935043335E-001,1.043148562312126E-001,2.955752611160278E-002,1.614809036254883E-002,-9.863961935043335E-001,1.043148562312126E-001,
1.091600000000000E+009,3.606207296252251E-002,6.677754689007998E-003,-9.786002635955811E-001,1.260537207126617E-001,3.606207296252251E-002,6.677754689007998E-003,-9.786002635955811E-001,1.260537207126617E-001,
1.099966666666667E+009,3.736921027302742E-002,-6.844907999038696E-003,-9.832379221916199E-001,1.635943651199341E-001,3.736921027302742E-002,-6.844907999038696E-003,-9.832379221916199E-001,1.635943651199341E-001,
1.108333333333334E+009,2.858671545982361E-002,-1.743321307003498E-002,-9.598568081855774E-001,1.671890616416931E-001,2.858671545982361E-002,-1.743321307003498E-002,-9.598568081855774E-001,1.671890616416931E-001,
1.116700000000000E+009,1.584133692085743E-002,-1.791017316281796E-002,-9.650649428367615E-001,2.128744125366211E-001,1.584133692085743E-002,-1.791017316281796E-002,-9.650649428367615E-001,2.128744125366211E-001,
1.125066666666667E+009,1.888211583718658E-003,-1.807318627834320E-002,-9.678842425346375E-001,2.214217931032181E-001,1.888211583718658E-003,-1.807318627834320E-002,-9.678842425346375E-001,2.214217931032181E-001,
1.133433333333334E+009,-8.623280562460423E-003,-6.010682322084904E-003,-9.702544212341309E-001,2.453472316265106E-001,-8.623280562460423E-003,-6.010682322084904E-003,-9.702544212341309E-001,2.453472316265106E-001,
1.141800000000000E+009,-1.181703247129917E-002,6.522956769913435E-003,-9.442468285560608E-001,2.671394944190979E-001,-1.181703247129917E-002,6.522956769913435E-003,-9.442468285560608E-001,2.671394944190979E-001,
1.150166666666667E+009,-7.728078868240118E-003,2.286695502698422E-002,-9.306983947753906E-001,2.989205718040466E-001,-7.728078868240118E-003,2.286695502698422E-002,-9.306983947753906E-001,2.989205718040466E-001,
1.158533333333334E+009,4.807807505130768E-003,3.224229812622070E-002,-9.347551465034485E-001,3.237017989158630E-001,4.807807505130768E-003,3.224229812622070E-002,-9.347551465034485E-001,3.237017989158630E-001,
1.166900000000000E+009,2.318924479186535E-002,3.350342065095902E-002,-9.267749786376953E-001,3.567526042461395E-001,2.318924479186535E-002,3.350342065095902E-002,-9.267749786376953E-001,3.567526042461395E-001,
1.175266666666667E+009,3.902903571724892E-002,2.397864498198032E-002,-9.183033704757690E-001,3.617597222328186E-001,3.902903571724892E-002,2.397864498198032E-002,-9.183033704757690E-001,3.617597222328186E-001,
1.183633333333334E+009,5.136565491557121E-002,8.916093967854977E-003,-9.100691080093384E-001,4.016117751598358E-001,5.136565491557121E-002,8.916093967854977E-003,-9.100691080093384E-001,4.016117751598358E-001,
1.192000000000000E+009,5.341167002916336E-002,-1.159824989736080E-002,-8.980008363723755E-001,4.097528159618378E-001,5.341167002916336E-002,-1.159824989736080E-002,-8.980008363723755E-001,4.097528159618378E-001,
1.200366666666667E+009,4.409062862396240E-002,-2.735903114080429E-002,-8.924567699432373E-001,4.379373788833618E-001,4.409062862396240E-002,-2.735903114080429E-002,-8.924567699432373E-001,4.379373788833618E-001,
1.208733333333334E+009,2.917952835559845E-002,-3.852007538080216E-002,-8.859756588935852E-001,4.557259082794190E-001,2.917952835559845E-002,-3.852007538080216E-002,-8.859756588935852E-001,4.557259082794190E-001,
1.217100000000000E+009,1.041514147073031E-002,-3.583971783518791E-002,-8.722463846206665E-001,4.770300984382629E-001,1.041514147073031E-002,-3.583971783518791E-002,-8.722463846206665E-001,4.770300984382629E-001,
1.225466666666667E+009,-2.241466660052538E-003,-2.751548215746880E-002,-8.491117358207703E-001,5.035285353660584E-001,-2.241466660052538E-003,-2.751548215746880E-002,-8.491117358207703E-001,5.035285353660584E-001,
1.233833333333334E+009,-1.125483587384224E-002,-1.100813318043947E-002,-8.348539471626282E-001,5.214192271232605E-001,-1.125483587384224E-002,-1.100813318043947E-002,-8.348539471626282E-001,5.214192271232605E-001,
1.242200000000000E+009,-9.913652203977108E-003,6.994590163230896E-003,-8.215364217758179E-001,5.351228117942810E-001,-9.913652203977108E-003,6.994590163230896E-003,-8.215364217758179E-001,5.351228117942810E-001,
1.250566666666667E+009,3.257335629314184E-003,1.896218955516815E-002,-7.961053848266602E-001,5.648040771484375E-001,3.257335629314184E-003,1.896218955516815E-002,-7.961053848266602E-001,5.648040771484375E-001,
1.258933333333334E+009,2.088308148086071E-002,2.216233499348164E-002,-8.094007968902588E-001,5.841146707534790E-001,2.088308148086071E-002,2.216233499348164E-002,-8.094007968902588E-001,5.841146707534790E-001,
1.267300000000000E+009,3.894941881299019E-002,1.313831936568022E-002,-7.902442216873169E-001,5.988886952400208E-001,3.894941881299019E-002,1.313831936568022E-002,-7.902442216873169E-001,5.988886952400208E-001,
1.275666666666667E+009,5.051041767001152E-002,-4.533952102065086E-003,-7.577233314514160E-001,6.251990795135498E-001,5.051041767001152E-002,-4.533952102065086E-003,-7.577233314514160E-001,6.251990795135498E-001,
1.284033333333334E+009,5.147624388337135E-002,-2.624249085783958E-002,-7.522455453872681E-001,6.447200179100037E-001,5.147624388337135E-002,-2.624249085783958E-002,-7.522455453872681E-001,6.447200179100037E-001,
1.292400000000000E+009,4.170642048120499E-002,-4.512365534901619E-002,-7.415397763252258E-001,6.589128971099854E-001,4.170642048120499E-002,-4.512365534901619E-002,-7.415397763252258E-001,6.589128971099854E-001,
1.300766666666667E+009,2.377893961966038E-002,-5.568703263998032E-002,-7.182908654212952E-001,6.776166558265686E-001,2.377893961966038E-002,-5.568703263998032E-002,-7.182908654212952E-001,6.776166558265686E-001,
1.309133333333334E+009,1.937562366947532E-003,-5.537661164999008E-002,-7.076340913772583E-001,6.944370269775391E-001,1.937562366947532E-003,-5.537661164999008E-002,-7.076340913772583E-001,6.944370269775391E-001,
1.317500000000000E+009,-1.335366815328598E-002,-4.426143318414688E-002,-6.836600899696350E-001,7.115154266357422E-001,-1.335366815328598E-002,-4.426143318414688E-002,-6.836600899696350E-001,7.115154266357422E-001,
1.325866666666667E+009,-2.127118222415447E-002,-2.493414282798767E-002,-6.696843504905701E-001,7.259088754653931E-001,-2.127118222415447E-002,-2.493414282798767E-002,-6.696843504905701E-001,7.259088754653931E-001,
1.334233333333334E+009,-1.700649037957192E-002,-6.151040550321341E-003,-6.443312168121338E-001,7.482120394706726E-001,-1.700649037957192E-002,-6.151040550321341E-003,-6.443312168121338E-001,7.482120394706726E-001,
1.342600000000000E+009,-4.852474201470614E-003,5.107502918690443E-003,-6.277023553848267E-001,7.674618363380432E-001,-4.852474201470614E-003,5.107502918690443E-003,-6.277023553848267E-001,7.674618363380432E-001,
1.350966666666667E+009,1.298374868929386E-002,6.427629385143518E-003,-5.992415547370911E-001,7.933240532875061E-001,1.298374868929386E-002,6.427629385143518E-003,-5.992415547370911E-001,7.933240532875061E-001,
1.359333333333334E+009,2.907325513660908E-002,-2.900436520576477E-003,-5.883467197418213E-001,7.968954443931580E-001,2.907325513660908E-002,-2.900436520576477E-003,-5.883467197418213E-001,7.968954443931580E-001,
1.367700000000000E+009,3.409937769174576E-002,-2.307868562638760E-002,-5.720586180686951E-001,8.067700862884522E-001,3.409937769174576E-002,-2.307868562638760E-002,-5.720586180686951E-001,8.067700862884522E-001,
1.376066666666667E+009,3.142962977290154E-002,-4.224432632327080E-002,-5.571375489234924E-001,8.237509131431580E-001,3.142962977290154E-002,-4.224432632327080E-002,-5.571375489234924E-001,8.237509131431580E-001,
1.384433333333334E+009,1.591953448951244E-002,-6.131390482187271E-002,-5.316669940948486E-001,8.489686846733093E-001,1.591953448951244E-002,-6.131390482187271E-002,-5.316669940948486E-001,8.489686846733093E-001,
1.392800000000000E+009,-5.968705285340548E-003,-6.653822213411331E-002,-5.178519487380981E-001,8.426854610443115E-001,-5.968705285340548E-003,-6.653822213411331E-002,-5.178519487380981E-001,8.426854610443115E-001,
1.401166666666667E+009,-2.745675481855869E-002,-6.010913476347923E-002,-4.955698251724243E-001,8.643064498901367E-001,-2.745675481855869E-002,-6.010913476347923E-002,-4.955698251724243E-001,8.643064498901367E-001,
1.409533333333334E+009,-4.345264658331871E-002,-4.468474537134171E-002,-4.657070636749268E-001,8.752268552780151E-001,-4.345264658331871E-002,-4.468474537134171E-002,-4.657070636749268E-001,8.752268552780151E-001,
1.417900000000000E+009,-4.823296889662743E-002,-1.976589672267437E-002,-4.536957442760468E-001,8.699206113815308E-001,-4.823296889662743E-002,-1.976589672267437E-002,-4.536957442760468E-001,8.699206113815308E-001,
1.426266666666667E+009,-3.976326435804367E-002,-2.104499435517937E-004,-4.258076548576355E-001,8.991712331771851E-001,-3.976326435804367E-002,-2.104499435517937E-004,-4.258076548576355E-001,8.991712331771851E-001,
1.434633333333334E+009,-2.278245426714420E-002,1.366971526294947E-002,-3.926475942134857E-001,9.092807769775391E-001,-2.278245426714420E-002,1.366971526294947E-002,-3.926475942134857E-001,9.092807769775391E-001,
1.443000000000000E+009,-2.427110681310296E-003,1.589998975396156E-002,-3.775269091129303E-001,9.147658944129944E-001,-2.427110681310296E-003,1.589998975396156E-002,-3.775269091129303E-001,9.147658944129944E-001,
1.451366666666667E+009,1.487340591847897E-002,6.011527031660080E-003,-3.463538587093353E-001,9.226278066635132E-001,1.487340591847897E-002,6.011527031660080E-003,-3.463538587093353E-001,9.226278066635132E-001,
1.459733333333334E+009,2.494894340634346E-002,-1.441303174942732E-002,-3.311261832714081E-001,9.274283051490784E-001,2.494894340634346E-002,-1.441303174942732E-002,-3.311261832714081E-001,9.274283051490784E-001,
