% Version 1.00
%
%freq[Hz],re:Trc1_S11,im:Trc1_S11,re:Trc2_S21,im:Trc2_S21,re:Trc3_S11,im:Trc3_S11,re:Trc4_S21,im:Trc4_S21,
6.900000000000000E+008,-5.551879853010178E-002,7.572379428893328E-003,-4.927393496036530E-001,-8.533220291137695E-001,-5.551879853010178E-002,7.572379428893328E-003,-4.927393496036530E-001,-8.533220291137695E-001,
6.983666666666666E+008,-4.713320732116699E-002,7.733250968158245E-003,-5.226626992225647E-001,-8.403620719909668E-001,-4.713320732116699E-002,7.733250968158245E-003,-5.226626992225647E-001,-8.403620719909668E-001,
7.067333333333334E+008,-4.130729660391808E-002,1.916018780320883E-003,-5.683534741401672E-001,-7.777178883552551E-001,-4.130729660391808E-002,1.916018780320883E-003,-5.683534741401672E-001,-7.777178883552551E-001,
7.151000000000000E+008,-4.242627322673798E-002,-5.152011755853891E-003,-5.883796215057373E-001,-7.918321490287781E-001,-4.242627322673798E-002,-5.152011755853891E-003,-5.883796215057373E-001,-7.918321490287781E-001,
7.234666666666666E+008,-4.684338346123695E-002,-1.075407117605209E-002,-5.992740392684937E-001,-7.800583243370056E-001,-4.684338346123695E-002,-1.075407117605209E-002,-5.992740392684937E-001,-7.800583243370056E-001,
7.318333333333334E+008,-5.504222959280014E-002,-1.257522217929363E-002,-6.157287359237671E-001,-7.782320976257324E-001,-5.504222959280014E-002,-1.257522217929363E-002,-6.157287359237671E-001,-7.782320976257324E-001,
7.402000000000000E+008,-6.223265826702118E-002,-1.188023015856743E-002,-6.579673886299133E-001,-7.582998275756836E-001,-6.223265826702118E-002,-1.188023015856743E-002,-6.579673886299133E-001,-7.582998275756836E-001,
7.485666666666666E+008,-7.034591585397720E-002,-5.248481407761574E-003,-6.573030352592468E-001,-7.593215703964233E-001,-7.034591585397720E-002,-5.248481407761574E-003,-6.573030352592468E-001,-7.593215703964233E-001,
7.569333333333334E+008,-7.242504507303238E-002,3.079572925344110E-003,-6.605272889137268E-001,-7.320608496665955E-001,-7.242504507303238E-002,3.079572925344110E-003,-6.605272889137268E-001,-7.320608496665955E-001,
7.653000000000000E+008,-6.913556903600693E-002,1.079841610044241E-002,-6.867473721504211E-001,-7.173665165901184E-001,-6.913556903600693E-002,1.079841610044241E-002,-6.867473721504211E-001,-7.173665165901184E-001,
7.736666666666666E+008,-6.272583454847336E-002,1.676385290920734E-002,-7.189131379127502E-001,-6.894825100898743E-001,-6.272583454847336E-002,1.676385290920734E-002,-7.189131379127502E-001,-6.894825100898743E-001,
7.820333333333334E+008,-5.487404018640518E-002,1.974832825362682E-002,-7.277609109878540E-001,-6.761897802352905E-001,-5.487404018640518E-002,1.974832825362682E-002,-7.277609109878540E-001,-6.761897802352905E-001,
7.904000000000000E+008,-4.620539397001267E-002,1.860002614557743E-002,-7.310075759887695E-001,-6.549290418624878E-001,-4.620539397001267E-002,1.860002614557743E-002,-7.310075759887695E-001,-6.549290418624878E-001,
7.987666666666666E+008,-4.223461821675301E-002,1.328673213720322E-002,-7.693743705749512E-001,-6.324993968009949E-001,-4.223461821675301E-002,1.328673213720322E-002,-7.693743705749512E-001,-6.324993968009949E-001,
8.071333333333334E+008,-4.109029099345207E-002,8.681978099048138E-003,-7.711728215217590E-001,-6.240580677986145E-001,-4.109029099345207E-002,8.681978099048138E-003,-7.711728215217590E-001,-6.240580677986145E-001,
8.155000000000000E+008,-4.832486063241959E-002,2.390288049355149E-003,-7.930865287780762E-001,-5.997206568717957E-001,-4.832486063241959E-002,2.390288049355149E-003,-7.930865287780762E-001,-5.997206568717957E-001,
8.238666666666666E+008,-5.331454426050186E-002,-4.457786562852562E-004,-7.942714691162109E-001,-5.731269717216492E-001,-5.331454426050186E-002,-4.457786562852562E-004,-7.942714691162109E-001,-5.731269717216492E-001,
8.322333333333334E+008,-6.157544627785683E-002,4.106226260773838E-004,-8.128576874732971E-001,-5.526880025863648E-001,-6.157544627785683E-002,4.106226260773838E-004,-8.128576874732971E-001,-5.526880025863648E-001,
8.406000000000000E+008,-6.861585378646851E-002,5.593453999608755E-003,-8.282731175422669E-001,-5.420265793800354E-001,-6.861585378646851E-002,5.593453999608755E-003,-8.282731175422669E-001,-5.420265793800354E-001,
8.489666666666668E+008,-7.340700179338455E-002,1.287493482232094E-002,-8.355518579483032E-001,-5.240490436553955E-001,-7.340700179338455E-002,1.287493482232094E-002,-8.355518579483032E-001,-5.240490436553955E-001,
8.573333333333334E+008,-7.157143950462341E-002,2.096871472895145E-002,-8.539299964904785E-001,-4.831973314285278E-001,-7.157143950462341E-002,2.096871472895145E-002,-8.539299964904785E-001,-4.831973314285278E-001,
8.657000000000000E+008,-6.547634303569794E-002,2.961812540888786E-002,-8.745430111885071E-001,-4.661599993705750E-001,-6.547634303569794E-002,2.961812540888786E-002,-8.745430111885071E-001,-4.661599993705750E-001,
8.740666666666668E+008,-5.818364769220352E-002,3.282548859715462E-002,-8.708357214927673E-001,-4.530758261680603E-001,-5.818364769220352E-002,3.282548859715462E-002,-8.708357214927673E-001,-4.530758261680603E-001,
8.824333333333334E+008,-4.928011074662209E-002,3.270315751433373E-002,-8.887988328933716E-001,-4.387400150299072E-001,-4.928011074662209E-002,3.270315751433373E-002,-8.887988328933716E-001,-4.387400150299072E-001,
8.908000000000000E+008,-4.159236699342728E-002,2.862998470664024E-002,-8.885607123374939E-001,-4.062775969505310E-001,-4.159236699342728E-002,2.862998470664024E-002,-8.885607123374939E-001,-4.062775969505310E-001,
8.991666666666668E+008,-3.905090317130089E-002,2.226675674319267E-002,-9.011386632919312E-001,-3.802197575569153E-001,-3.905090317130089E-002,2.226675674319267E-002,-9.011386632919312E-001,-3.802197575569153E-001,
9.075333333333334E+008,-4.193313419818878E-002,1.635948009788990E-002,-9.332639575004578E-001,-3.600244820117950E-001,-4.193313419818878E-002,1.635948009788990E-002,-9.332639575004578E-001,-3.600244820117950E-001,
9.159000000000000E+008,-4.585465788841248E-002,1.563818566501141E-002,-9.366171956062317E-001,-3.296454846858978E-001,-4.585465788841248E-002,1.563818566501141E-002,-9.366171956062317E-001,-3.296454846858978E-001,
9.242666666666668E+008,-5.268463492393494E-002,1.397111080586910E-002,-9.426773786544800E-001,-3.113189637660980E-001,-5.268463492393494E-002,1.397111080586910E-002,-9.426773786544800E-001,-3.113189637660980E-001,
9.326333333333334E+008,-6.094678863883019E-002,1.573356054723263E-002,-9.652326703071594E-001,-2.903444170951843E-001,-6.094678863883019E-002,1.573356054723263E-002,-9.652326703071594E-001,-2.903444170951843E-001,
9.410000000000000E+008,-6.560078263282776E-002,2.121669426560402E-002,-9.561516046524048E-001,-2.597451806068420E-001,-6.560078263282776E-002,2.121669426560402E-002,-9.561516046524048E-001,-2.597451806068420E-001,
9.493666666666668E+008,-6.784386187791824E-002,2.907371520996094E-002,-9.535336494445801E-001,-2.427553683519363E-001,-6.784386187791824E-002,2.907371520996094E-002,-9.535336494445801E-001,-2.427553683519363E-001,
9.577333333333334E+008,-6.578481942415237E-002,3.836519643664360E-002,-9.688040614128113E-001,-2.173973470926285E-001,-6.578481942415237E-002,3.836519643664360E-002,-9.688040614128113E-001,-2.173973470926285E-001,
9.661000000000000E+008,-5.869317799806595E-002,4.675927013158798E-002,-9.666980504989624E-001,-1.939578503370285E-001,-5.869317799806595E-002,4.675927013158798E-002,-9.666980504989624E-001,-1.939578503370285E-001,
9.744666666666668E+008,-5.066255480051041E-002,4.794716089963913E-002,-9.764358997344971E-001,-1.721298843622208E-001,-5.066255480051041E-002,4.794716089963913E-002,-9.764358997344971E-001,-1.721298843622208E-001,
9.828333333333334E+008,-3.820686787366867E-002,4.562546312808991E-002,-9.802678823471069E-001,-1.501451581716538E-001,-3.820686787366867E-002,4.562546312808991E-002,-9.802678823471069E-001,-1.501451581716538E-001,
9.912000000000000E+008,-3.233992308378220E-002,4.072805494070053E-002,-9.807771444320679E-001,-1.216069981455803E-001,-3.233992308378220E-002,4.072805494070053E-002,-9.807771444320679E-001,-1.216069981455803E-001,
9.995666666666668E+008,-2.712264657020569E-002,3.310837596654892E-002,-9.938052892684937E-001,-8.319216221570969E-002,-2.712264657020569E-002,3.310837596654892E-002,-9.938052892684937E-001,-8.319216221570969E-002,
1.007933333333333E+009,-2.894830331206322E-002,2.561568468809128E-002,-9.946066141128540E-001,-6.932970881462097E-002,-2.894830331206322E-002,2.561568468809128E-002,-9.946066141128540E-001,-6.932970881462097E-002,
1.016300000000000E+009,-3.662671148777008E-002,2.143941074609757E-002,-9.936608672142029E-001,-4.137297347187996E-002,-3.662671148777008E-002,2.143941074609757E-002,-9.936608672142029E-001,-4.137297347187996E-002,
1.024666666666667E+009,-4.503053799271584E-002,1.666452921926975E-002,-9.944598078727722E-001,-8.551431819796562E-003,-4.503053799271584E-002,1.666452921926975E-002,-9.944598078727722E-001,-8.551431819796562E-003,
1.033033333333333E+009,-5.282822996377945E-002,2.138997428119183E-002,-9.933670759201050E-001,9.086449630558491E-003,-5.282822996377945E-002,2.138997428119183E-002,-9.933670759201050E-001,9.086449630558491E-003,
1.041400000000000E+009,-5.897805094718933E-002,2.908067405223846E-002,-9.791733622550964E-001,4.834541678428650E-002,-5.897805094718933E-002,2.908067405223846E-002,-9.791733622550964E-001,4.834541678428650E-002,
1.049766666666667E+009,-6.067666411399841E-002,3.919798508286476E-002,-9.866561293601990E-001,7.072614878416061E-002,-6.067666411399841E-002,3.919798508286476E-002,-9.866561293601990E-001,7.072614878416061E-002,
1.058133333333333E+009,-5.536521598696709E-002,4.722966253757477E-002,-9.870674014091492E-001,8.382591605186462E-002,-5.536521598696709E-002,4.722966253757477E-002,-9.870674014091492E-001,8.382591605186462E-002,
1.066500000000000E+009,-4.592593759298325E-002,5.324436724185944E-002,-9.972778558731079E-001,1.221954971551895E-001,-4.592593759298325E-002,5.324436724185944E-002,-9.972778558731079E-001,1.221954971551895E-001,
1.074866666666667E+009,-3.528522700071335E-002,5.156650021672249E-002,-9.752439260482788E-001,1.440458595752716E-001,-3.528522700071335E-002,5.156650021672249E-002,-9.752439260482788E-001,1.440458595752716E-001,
1.083233333333334E+009,-2.482132241129875E-002,4.266032204031944E-002,-9.754760265350342E-001,1.622000485658646E-001,-2.482132241129875E-002,4.266032204031944E-002,-9.754760265350342E-001,1.622000485658646E-001,
1.091600000000000E+009,-2.014738135039806E-002,3.359491378068924E-002,-9.680919051170349E-001,1.854775696992874E-001,-2.014738135039806E-002,3.359491378068924E-002,-9.680919051170349E-001,1.854775696992874E-001,
1.099966666666667E+009,-2.105137705802918E-002,2.260992303490639E-002,-9.723791480064392E-001,2.245264500379562E-001,-2.105137705802918E-002,2.260992303490639E-002,-9.723791480064392E-001,2.245264500379562E-001,
1.108333333333334E+009,-3.078517504036427E-002,1.377101242542267E-002,-9.440681338310242E-001,2.304380089044571E-001,-3.078517504036427E-002,1.377101242542267E-002,-9.440681338310242E-001,2.304380089044571E-001,
1.116700000000000E+009,-4.298581555485725E-002,1.573162712156773E-002,-9.447516202926636E-001,2.769421339035034E-001,-4.298581555485725E-002,1.573162712156773E-002,-9.447516202926636E-001,2.769421339035034E-001,
1.125066666666667E+009,-5.787060782313347E-002,1.815816201269627E-002,-9.495271444320679E-001,2.857303321361542E-001,-5.787060782313347E-002,1.815816201269627E-002,-9.495271444320679E-001,2.857303321361542E-001,
1.133433333333334E+009,-6.653505563735962E-002,3.269624337553978E-002,-9.475241303443909E-001,3.080178797245026E-001,-6.653505563735962E-002,3.269624337553978E-002,-9.475241303443909E-001,3.080178797245026E-001,
1.141800000000000E+009,-6.723689287900925E-002,4.628754779696465E-002,-9.198563098907471E-001,3.286246657371521E-001,-6.723689287900925E-002,4.628754779696465E-002,-9.198563098907471E-001,3.286246657371521E-001,
1.150166666666667E+009,-6.129320710897446E-002,6.296256929636002E-002,-9.030806422233582E-001,3.570250272750855E-001,-6.129320710897446E-002,6.296256929636002E-002,-9.030806422233582E-001,3.570250272750855E-001,
1.158533333333334E+009,-4.688945412635803E-002,7.105349749326706E-002,-9.054449796676636E-001,3.811328113079071E-001,-4.688945412635803E-002,7.105349749326706E-002,-9.054449796676636E-001,3.811328113079071E-001,
1.166900000000000E+009,-2.864540554583073E-002,7.164567708969116E-002,-9.000224471092224E-001,4.138665795326233E-001,-2.864540554583073E-002,7.164567708969116E-002,-9.000224471092224E-001,4.138665795326233E-001,
1.175266666666667E+009,-1.283401064574719E-002,6.113558635115624E-002,-8.912842273712158E-001,4.185260832309723E-001,-1.283401064574719E-002,6.113558635115624E-002,-8.912842273712158E-001,4.185260832309723E-001,
1.183633333333334E+009,-2.605176763609052E-003,4.570785164833069E-002,-8.786244392395020E-001,4.652099907398224E-001,-2.605176763609052E-003,4.570785164833069E-002,-8.786244392395020E-001,4.652099907398224E-001,
1.192000000000000E+009,-2.996967639774084E-003,2.663879469037056E-002,-8.683595061302185E-001,4.684524834156036E-001,-2.996967639774084E-003,2.663879469037056E-002,-8.683595061302185E-001,4.684524834156036E-001,
1.200366666666667E+009,-1.400606147944927E-002,1.287886407226324E-002,-8.586982488632202E-001,4.983341395854950E-001,-1.400606147944927E-002,1.287886407226324E-002,-8.586982488632202E-001,4.983341395854950E-001,
1.208733333333334E+009,-3.107901476323605E-002,5.536210723221302E-003,-8.522950410842896E-001,5.159605145454407E-001,-3.107901476323605E-002,5.536210723221302E-003,-8.522950410842896E-001,5.159605145454407E-001,
1.217100000000000E+009,-4.924276471138001E-002,1.252873428165913E-002,-8.334395885467529E-001,5.360628366470337E-001,-4.924276471138001E-002,1.252873428165913E-002,-8.334395885467529E-001,5.360628366470337E-001,
1.225466666666667E+009,-5.991280823945999E-002,2.526060119271278E-002,-8.080897331237793E-001,5.634722709655762E-001,-5.991280823945999E-002,2.526060119271278E-002,-8.080897331237793E-001,5.634722709655762E-001,
1.233833333333334E+009,-6.676886975765228E-002,4.227896779775620E-002,-7.915740609169006E-001,5.809498429298401E-001,-6.676886975765228E-002,4.227896779775620E-002,-7.915740609169006E-001,5.809498429298401E-001,
1.242200000000000E+009,-6.284667551517487E-002,6.034117192029953E-002,-7.791661024093628E-001,5.902571678161621E-001,-6.284667551517487E-002,6.034117192029953E-002,-7.791661024093628E-001,5.902571678161621E-001,
1.250566666666667E+009,-4.729430004954338E-002,7.177270203828812E-002,-7.523058056831360E-001,6.199060678482056E-001,-4.729430004954338E-002,7.177270203828812E-002,-7.523058056831360E-001,6.199060678482056E-001,
1.258933333333334E+009,-2.787934243679047E-002,7.323502004146576E-002,-7.647245526313782E-001,6.384128332138062E-001,-2.787934243679047E-002,7.323502004146576E-002,-7.647245526313782E-001,6.384128332138062E-001,
1.267300000000000E+009,-9.774427860975266E-003,6.323625892400742E-002,-7.429643869400024E-001,6.527680754661560E-001,-9.774427860975266E-003,6.323625892400742E-002,-7.429643869400024E-001,6.527680754661560E-001,
1.275666666666667E+009,-8.769167470745742E-004,4.449664428830147E-002,-7.120367288589478E-001,6.780571341514587E-001,-8.769167470745742E-004,4.449664428830147E-002,-7.120367288589478E-001,6.780571341514587E-001,
1.284033333333334E+009,-1.925570308230817E-003,2.400831691920757E-002,-7.041079401969910E-001,7.009079456329346E-001,-1.925570308230817E-003,2.400831691920757E-002,-7.041079401969910E-001,7.009079456329346E-001,
1.292400000000000E+009,-1.341573894023895E-002,8.203980512917042E-003,-6.899893879890442E-001,7.177447080612183E-001,-1.341573894023895E-002,8.203980512917042E-003,-6.899893879890442E-001,7.177447080612183E-001,
1.300766666666667E+009,-3.311533853411675E-002,1.252906513400376E-003,-6.617524027824402E-001,7.326139211654663E-001,-3.311533853411675E-002,1.252906513400376E-003,-6.617524027824402E-001,7.326139211654663E-001,
1.309133333333334E+009,-5.349612608551979E-002,6.594985723495483E-003,-6.473053097724915E-001,7.475284934043884E-001,-5.349612608551979E-002,6.594985723495483E-003,-6.473053097724915E-001,7.475284934043884E-001,
1.317500000000000E+009,-6.811479479074478E-002,2.197119407355785E-002,-6.221889257431030E-001,7.614018917083740E-001,-6.811479479074478E-002,2.197119407355785E-002,-6.221889257431030E-001,7.614018917083740E-001,
1.325866666666667E+009,-7.183393836021423E-002,4.311766847968102E-002,-6.086250543594360E-001,7.736361026763916E-001,-7.183393836021423E-002,4.311766847968102E-002,-6.086250543594360E-001,7.736361026763916E-001,
1.334233333333334E+009,-6.480587273836136E-002,6.230567023158073E-002,-5.790588259696960E-001,7.929948568344116E-001,-6.480587273836136E-002,6.230567023158073E-002,-5.790588259696960E-001,7.929948568344116E-001,
1.342600000000000E+009,-4.972423240542412E-002,7.211060822010040E-002,-5.630187392234802E-001,8.075019717216492E-001,-4.972423240542412E-002,7.211060822010040E-002,-5.630187392234802E-001,8.075019717216492E-001,
1.350966666666667E+009,-3.090291284024715E-002,7.223168015480042E-002,-5.329269766807556E-001,8.397391438484192E-001,-3.090291284024715E-002,7.223168015480042E-002,-5.329269766807556E-001,8.397391438484192E-001,
1.359333333333334E+009,-1.636229082942009E-002,6.124971434473991E-002,-5.231892466545105E-001,8.401377797126770E-001,-1.636229082942009E-002,6.124971434473991E-002,-5.231892466545105E-001,8.401377797126770E-001,
1.367700000000000E+009,-1.284610480070114E-002,4.022454470396042E-002,-5.036535859107971E-001,8.487571477890015E-001,-1.284610480070114E-002,4.022454470396042E-002,-5.036535859107971E-001,8.487571477890015E-001,
1.376066666666667E+009,-1.754390448331833E-002,2.311675809323788E-002,-4.879226684570313E-001,8.674381971359253E-001,-1.754390448331833E-002,2.311675809323788E-002,-4.879226684570313E-001,8.674381971359253E-001,
1.384433333333334E+009,-3.490318357944489E-002,8.126715198159218E-003,-4.643818438053131E-001,8.898443579673767E-001,-3.490318357944489E-002,8.126715198159218E-003,-4.643818438053131E-001,8.898443579673767E-001,
1.392800000000000E+009,-5.644913762807846E-002,7.607693318277597E-003,-4.449812769889832E-001,8.836801648139954E-001,-5.644913762807846E-002,7.607693318277597E-003,-4.449812769889832E-001,8.836801648139954E-001,
1.401166666666667E+009,-7.675378024578095E-002,2.043990232050419E-002,-4.175244271755219E-001,9.018276333808899E-001,-7.675378024578095E-002,2.043990232050419E-002,-4.175244271755219E-001,9.018276333808899E-001,
1.409533333333334E+009,-8.759471029043198E-002,3.820375725626946E-002,-3.848969042301178E-001,9.072870612144470E-001,-8.759471029043198E-002,3.820375725626946E-002,-3.848969042301178E-001,9.072870612144470E-001,
1.417900000000000E+009,-8.849601447582245E-002,6.553541868925095E-002,-3.710686266422272E-001,9.048597812652588E-001,-8.849601447582245E-002,6.553541868925095E-002,-3.710686266422272E-001,9.048597812652588E-001,
1.426266666666667E+009,-7.483477145433426E-002,8.524432033300400E-002,-3.419439792633057E-001,9.289926886558533E-001,-7.483477145433426E-002,8.524432033300400E-002,-3.419439792633057E-001,9.289926886558533E-001,
1.434633333333334E+009,-5.599745735526085E-002,9.618291258811951E-002,-3.122584223747253E-001,9.327757358551025E-001,-5.599745735526085E-002,9.618291258811951E-002,-3.122584223747253E-001,9.327757358551025E-001,
1.443000000000000E+009,-3.424426168203354E-002,9.601631015539169E-002,-2.956759929656982E-001,9.387669563293457E-001,-3.424426168203354E-002,9.601631015539169E-002,-2.956759929656982E-001,9.387669563293457E-001,
1.451366666666667E+009,-1.791860722005367E-002,8.330105245113373E-002,-2.675270140171051E-001,9.412284493446350E-001,-1.791860722005367E-002,8.330105245113373E-002,-2.675270140171051E-001,9.412284493446350E-001,
1.459733333333334E+009,-9.969479404389858E-003,6.277993321418762E-002,-2.481810003519058E-001,9.530421495437622E-001,-9.969479404389858E-003,6.277993321418762E-002,-2.481810003519058E-001,9.530421495437622E-001,
