% Version 1.00
%
%freq[Hz],re:Trc1_S11,im:Trc1_S11,re:Trc2_S21,im:Trc2_S21,re:Trc3_S11,im:Trc3_S11,re:Trc4_S21,im:Trc4_S21,
6.900000000000000E+008,-6.311281770467758E-002,1.806093752384186E-002,-5.060350298881531E-001,-8.457229137420654E-001,-6.311281770467758E-002,1.806093752384186E-002,-5.060350298881531E-001,-8.457229137420654E-001,
6.983666666666666E+008,-5.433819070458412E-002,1.852274686098099E-002,-5.290628075599670E-001,-8.362925052642822E-001,-5.433819070458412E-002,1.852274686098099E-002,-5.290628075599670E-001,-8.362925052642822E-001,
7.067333333333334E+008,-4.874551296234131E-002,1.323755364865065E-002,-5.736355781555176E-001,-7.744744420051575E-001,-4.874551296234131E-002,1.323755364865065E-002,-5.736355781555176E-001,-7.744744420051575E-001,
7.151000000000000E+008,-4.947848245501518E-002,6.198184564709663E-003,-5.934587121009827E-001,-7.873095273971558E-001,-4.947848245501518E-002,6.198184564709663E-003,-5.934587121009827E-001,-7.873095273971558E-001,
7.234666666666666E+008,-5.363402888178825E-002,1.535583869554102E-003,-6.048319339752197E-001,-7.747927904129028E-001,-5.363402888178825E-002,1.535583869554102E-003,-6.048319339752197E-001,-7.747927904129028E-001,
7.318333333333334E+008,-6.183417886495590E-002,1.328479556832463E-004,-6.205897927284241E-001,-7.715181708335877E-001,-6.183417886495590E-002,1.328479556832463E-004,-6.205897927284241E-001,-7.715181708335877E-001,
7.402000000000000E+008,-6.896881759166718E-002,1.322433934547007E-003,-6.648750305175781E-001,-7.540788054466248E-001,-6.896881759166718E-002,1.322433934547007E-003,-6.648750305175781E-001,-7.540788054466248E-001,
7.485666666666666E+008,-7.690168917179108E-002,8.439423516392708E-003,-6.632565855979919E-001,-7.508618831634522E-001,-7.690168917179108E-002,8.439423516392708E-003,-6.632565855979919E-001,-7.508618831634522E-001,
7.569333333333334E+008,-7.911467552185059E-002,1.687213219702244E-002,-6.688219904899597E-001,-7.305812239646912E-001,-7.911467552185059E-002,1.687213219702244E-002,-6.688219904899597E-001,-7.305812239646912E-001,
7.653000000000000E+008,-7.514660060405731E-002,2.534097619354725E-002,-6.880965828895569E-001,-7.091870307922363E-001,-7.514660060405731E-002,2.534097619354725E-002,-6.880965828895569E-001,-7.091870307922363E-001,
7.736666666666666E+008,-6.877210736274719E-002,3.129117935895920E-002,-7.207649350166321E-001,-6.834041476249695E-001,-6.877210736274719E-002,3.129117935895920E-002,-7.207649350166321E-001,-6.834041476249695E-001,
7.820333333333334E+008,-6.083506345748901E-002,3.440091386437416E-002,-7.325453758239746E-001,-6.709857583045960E-001,-6.083506345748901E-002,3.440091386437416E-002,-7.325453758239746E-001,-6.709857583045960E-001,
7.904000000000000E+008,-5.172981321811676E-002,3.354243934154511E-002,-7.366588711738586E-001,-6.496739387512207E-001,-5.172981321811676E-002,3.354243934154511E-002,-7.366588711738586E-001,-6.496739387512207E-001,
7.987666666666666E+008,-4.805968701839447E-002,2.826866135001183E-002,-7.724137902259827E-001,-6.285018324851990E-001,-4.805968701839447E-002,2.826866135001183E-002,-7.724137902259827E-001,-6.285018324851990E-001,
8.071333333333334E+008,-4.629785194993019E-002,2.384892664849758E-002,-7.764367461204529E-001,-6.161738634109497E-001,-4.629785194993019E-002,2.384892664849758E-002,-7.764367461204529E-001,-6.161738634109497E-001,
8.155000000000000E+008,-5.317947641015053E-002,1.798449456691742E-002,-7.998536229133606E-001,-5.936360955238342E-001,-5.317947641015053E-002,1.798449456691742E-002,-7.998536229133606E-001,-5.936360955238342E-001,
8.238666666666666E+008,-5.794872716069222E-002,1.582290790975094E-002,-8.012505769729614E-001,-5.646050572395325E-001,-5.794872716069222E-002,1.582290790975094E-002,-8.012505769729614E-001,-5.646050572395325E-001,
8.322333333333334E+008,-6.606111675500870E-002,1.751868054270744E-002,-8.213376402854919E-001,-5.438371300697327E-001,-6.606111675500870E-002,1.751868054270744E-002,-8.213376402854919E-001,-5.438371300697327E-001,
8.406000000000000E+008,-7.231701165437698E-002,2.340318076312542E-002,-8.323727846145630E-001,-5.311856865882874E-001,-7.231701165437698E-002,2.340318076312542E-002,-8.323727846145630E-001,-5.311856865882874E-001,
8.489666666666668E+008,-7.703866064548492E-002,3.108602389693260E-002,-8.420367240905762E-001,-5.165538787841797E-001,-7.703866064548492E-002,3.108602389693260E-002,-8.420367240905762E-001,-5.165538787841797E-001,
8.573333333333334E+008,-7.532314956188202E-002,3.946638107299805E-002,-8.597050309181213E-001,-4.758297502994537E-001,-7.532314956188202E-002,3.946638107299805E-002,-8.597050309181213E-001,-4.758297502994537E-001,
8.657000000000000E+008,-6.860062479972839E-002,4.839536920189858E-002,-8.754838109016419E-001,-4.558110237121582E-001,-6.860062479972839E-002,4.839536920189858E-002,-8.754838109016419E-001,-4.558110237121582E-001,
8.740666666666668E+008,-6.125406920909882E-002,5.159113928675652E-002,-8.736283779144287E-001,-4.444767534732819E-001,-6.125406920909882E-002,5.159113928675652E-002,-8.736283779144287E-001,-4.444767534732819E-001,
8.824333333333334E+008,-5.219415947794914E-002,5.131338164210320E-002,-8.918647766113281E-001,-4.288133084774017E-001,-5.219415947794914E-002,5.131338164210320E-002,-8.918647766113281E-001,-4.288133084774017E-001,
8.908000000000000E+008,-4.428146407008171E-002,4.757172241806984E-002,-8.927176594734192E-001,-3.967233300209045E-001,-4.428146407008171E-002,4.757172241806984E-002,-8.927176594734192E-001,-3.967233300209045E-001,
8.991666666666668E+008,-4.151335731148720E-002,4.134774580597878E-002,-9.075991511344910E-001,-3.689823448657990E-001,-4.151335731148720E-002,4.134774580597878E-002,-9.075991511344910E-001,-3.689823448657990E-001,
9.075333333333334E+008,-4.340180754661560E-002,3.619432076811791E-002,-9.379839897155762E-001,-3.495472073554993E-001,-4.340180754661560E-002,3.619432076811791E-002,-9.379839897155762E-001,-3.495472073554993E-001,
9.159000000000000E+008,-4.745369404554367E-002,3.540581092238426E-002,-9.419659376144409E-001,-3.208856284618378E-001,-4.745369404554367E-002,3.540581092238426E-002,-9.419659376144409E-001,-3.208856284618378E-001,
9.242666666666668E+008,-5.324938148260117E-002,3.421360254287720E-002,-9.471738934516907E-001,-3.042573332786560E-001,-5.324938148260117E-002,3.421360254287720E-002,-9.471738934516907E-001,-3.042573332786560E-001,
9.326333333333334E+008,-6.156345456838608E-002,3.671693801879883E-002,-9.668440818786621E-001,-2.813936471939087E-001,-6.156345456838608E-002,3.671693801879883E-002,-9.668440818786621E-001,-2.813936471939087E-001,
9.410000000000000E+008,-6.560377776622772E-002,4.286048933863640E-002,-9.593759775161743E-001,-2.481245249509811E-001,-6.560377776622772E-002,4.286048933863640E-002,-9.593759775161743E-001,-2.481245249509811E-001,
9.493666666666668E+008,-6.723735481500626E-002,5.125730112195015E-002,-9.574741125106812E-001,-2.303217947483063E-001,-6.723735481500626E-002,5.125730112195015E-002,-9.574741125106812E-001,-2.303217947483063E-001,
9.577333333333334E+008,-6.486681848764420E-002,6.065664067864418E-002,-9.720272421836853E-001,-2.077899575233460E-001,-6.486681848764420E-002,6.065664067864418E-002,-9.720272421836853E-001,-2.077899575233460E-001,
9.661000000000000E+008,-5.768855288624764E-002,6.944987922906876E-002,-9.705271720886231E-001,-1.830258220434189E-001,-5.768855288624764E-002,6.944987922906876E-002,-9.705271720886231E-001,-1.830258220434189E-001,
9.744666666666668E+008,-4.900960996747017E-002,7.038079947233200E-002,-9.765082001686096E-001,-1.592476814985275E-001,-4.900960996747017E-002,7.038079947233200E-002,-9.765082001686096E-001,-1.592476814985275E-001,
9.828333333333334E+008,-3.669823706150055E-002,6.849393993616104E-002,-9.797554612159729E-001,-1.386675834655762E-001,-3.669823706150055E-002,6.849393993616104E-002,-9.797554612159729E-001,-1.386675834655762E-001,
9.912000000000000E+008,-3.066800534725189E-002,6.297173351049423E-002,-9.798801541328430E-001,-1.105670481920242E-001,-3.066800534725189E-002,6.297173351049423E-002,-9.798801541328430E-001,-1.105670481920242E-001,
9.995666666666668E+008,-2.477844245731831E-002,5.571162700653076E-002,-9.953320622444153E-001,-7.212185114622116E-002,-2.477844245731831E-002,5.571162700653076E-002,-9.953320622444153E-001,-7.212185114622116E-002,
1.007933333333333E+009,-2.642395719885826E-002,4.818654432892799E-002,-9.928265213966370E-001,-5.722581222653389E-002,-2.642395719885826E-002,4.818654432892799E-002,-9.928265213966370E-001,-5.722581222653389E-002,
1.016300000000000E+009,-3.303753957152367E-002,4.456885159015656E-002,-9.930659532546997E-001,-2.937122620642185E-002,-3.303753957152367E-002,4.456885159015656E-002,-9.930659532546997E-001,-2.937122620642185E-002,
1.024666666666667E+009,-4.105094820261002E-002,4.068324714899063E-002,-9.936491847038269E-001,3.909414634108543E-003,-4.105094820261002E-002,4.068324714899063E-002,-9.936491847038269E-001,3.909414634108543E-003,
1.033033333333333E+009,-4.778059199452400E-002,4.596638306975365E-002,-9.919918775558472E-001,2.273511514067650E-002,-4.778059199452400E-002,4.596638306975365E-002,-9.919918775558472E-001,2.273511514067650E-002,
1.041400000000000E+009,-5.353133007884026E-002,5.382740125060082E-002,-9.762734174728394E-001,6.059252470731735E-002,-5.353133007884026E-002,5.382740125060082E-002,-9.762734174728394E-001,6.059252470731735E-002,
1.049766666666667E+009,-5.417746677994728E-002,6.435651332139969E-002,-9.874108433723450E-001,7.950965315103531E-002,-5.417746677994728E-002,6.435651332139969E-002,-9.874108433723450E-001,7.950965315103531E-002,
1.058133333333333E+009,-4.870921745896339E-002,7.250059396028519E-002,-9.826697707176209E-001,9.735173732042313E-002,-4.870921745896339E-002,7.250059396028519E-002,-9.826697707176209E-001,9.735173732042313E-002,
1.066500000000000E+009,-3.837189078330994E-002,7.907751202583313E-002,-9.895667433738709E-001,1.350237280130386E-001,-3.837189078330994E-002,7.907751202583313E-002,-9.895667433738709E-001,1.350237280130386E-001,
1.074866666666667E+009,-2.789416722953320E-002,7.713548094034195E-002,-9.714439511299133E-001,1.530108600854874E-001,-2.789416722953320E-002,7.713548094034195E-002,-9.714439511299133E-001,1.530108600854874E-001,
1.083233333333334E+009,-1.724460534751415E-002,6.794297695159912E-002,-9.701634049415588E-001,1.748941391706467E-001,-1.724460534751415E-002,6.794297695159912E-002,-9.701634049415588E-001,1.748941391706467E-001,
1.091600000000000E+009,-1.240953709930182E-002,5.894247815012932E-002,-9.620981216430664E-001,1.972521543502808E-001,-1.240953709930182E-002,5.894247815012932E-002,-9.620981216430664E-001,1.972521543502808E-001,
1.099966666666667E+009,-1.277004834264517E-002,4.815114289522171E-002,-9.652889370918274E-001,2.358784973621368E-001,-1.277004834264517E-002,4.815114289522171E-002,-9.652889370918274E-001,2.358784973621368E-001,
1.108333333333334E+009,-2.250370010733604E-002,3.973482921719551E-002,-9.425681233406067E-001,2.398290485143662E-001,-2.250370010733604E-002,3.973482921719551E-002,-9.425681233406067E-001,2.398290485143662E-001,
1.116700000000000E+009,-3.353324532508850E-002,4.160485044121742E-002,-9.409445524215698E-001,2.872691452503204E-001,-3.353324532508850E-002,4.160485044121742E-002,-9.409445524215698E-001,2.872691452503204E-001,
1.125066666666667E+009,-4.729421809315682E-002,4.526232555508614E-002,-9.437198042869568E-001,2.973118722438812E-001,-4.729421809315682E-002,4.526232555508614E-002,-9.437198042869568E-001,2.973118722438812E-001,
1.133433333333334E+009,-5.502977222204208E-002,6.004040315747261E-002,-9.419355988502502E-001,3.212712407112122E-001,-5.502977222204208E-002,6.004040315747261E-002,-9.419355988502502E-001,3.212712407112122E-001,
1.141800000000000E+009,-5.458535999059677E-002,7.364861667156220E-002,-9.125781655311585E-001,3.399392962455750E-001,-5.458535999059677E-002,7.364861667156220E-002,-9.125781655311585E-001,3.399392962455750E-001,
1.150166666666667E+009,-4.758941382169724E-002,9.076043218374252E-002,-8.976109623908997E-001,3.703374266624451E-001,-4.758941382169724E-002,9.076043218374252E-002,-8.976109623908997E-001,3.703374266624451E-001,
1.158533333333334E+009,-3.270307928323746E-002,9.857766330242157E-002,-8.977527022361755E-001,3.934646546840668E-001,-3.270307928323746E-002,9.857766330242157E-002,-8.977527022361755E-001,3.934646546840668E-001,
1.166900000000000E+009,-1.396724116057158E-002,9.900403022766113E-002,-8.902266621589661E-001,4.246677458286285E-001,-1.396724116057158E-002,9.900403022766113E-002,-8.902266621589661E-001,4.246677458286285E-001,
1.175266666666667E+009,1.918884692713618E-003,8.762864768505096E-002,-8.814799189567566E-001,4.315231144428253E-001,1.918884692713618E-003,8.762864768505096E-002,-8.814799189567566E-001,4.315231144428253E-001,
1.183633333333334E+009,1.233616843819618E-002,7.301001250743866E-002,-8.707172870635986E-001,4.706633985042572E-001,1.233616843819618E-002,7.301001250743866E-002,-8.707172870635986E-001,4.706633985042572E-001,
1.192000000000000E+009,1.232525706291199E-002,5.388593301177025E-002,-8.607865571975708E-001,4.798279106616974E-001,1.232525706291199E-002,5.388593301177025E-002,-8.607865571975708E-001,4.798279106616974E-001,
1.200366666666667E+009,1.057763234712184E-003,4.041882231831551E-002,-8.509870171546936E-001,5.087271928787231E-001,1.057763234712184E-003,4.041882231831551E-002,-8.509870171546936E-001,5.087271928787231E-001,
1.208733333333334E+009,-1.474153529852629E-002,3.316450119018555E-002,-8.433481454849243E-001,5.275944471359253E-001,-1.474153529852629E-002,3.316450119018555E-002,-8.433481454849243E-001,5.275944471359253E-001,
1.217100000000000E+009,-3.175470605492592E-002,4.050361737608910E-002,-8.251435756683350E-001,5.472167134284973E-001,-3.175470605492592E-002,4.050361737608910E-002,-8.251435756683350E-001,5.472167134284973E-001,
1.225466666666667E+009,-4.046483710408211E-002,5.282974243164063E-002,-7.980867624282837E-001,5.738782882690430E-001,-4.046483710408211E-002,5.282974243164063E-002,-7.980867624282837E-001,5.738782882690430E-001,
1.233833333333334E+009,-4.603433981537819E-002,7.036378234624863E-002,-7.809086441993713E-001,5.902786254882813E-001,-4.603433981537819E-002,7.036378234624863E-002,-7.809086441993713E-001,5.902786254882813E-001,
1.242200000000000E+009,-4.097923263907433E-002,8.882508426904678E-002,-7.655775547027588E-001,6.001781225204468E-001,-4.097923263907433E-002,8.882508426904678E-002,-7.655775547027588E-001,6.001781225204468E-001,
1.250566666666667E+009,-2.466123178601265E-002,9.958351403474808E-002,-7.398291826248169E-001,6.278354525566101E-001,-2.466123178601265E-002,9.958351403474808E-002,-7.398291826248169E-001,6.278354525566101E-001,
1.258933333333334E+009,-4.758251830935478E-003,1.007187888026238E-001,-7.498254776000977E-001,6.471616029739380E-001,-4.758251830935478E-003,1.007187888026238E-001,-7.498254776000977E-001,6.471616029739380E-001,
1.267300000000000E+009,1.346463803201914E-002,9.011577069759369E-002,-7.314466238021851E-001,6.595497131347656E-001,1.346463803201914E-002,9.011577069759369E-002,-7.314466238021851E-001,6.595497131347656E-001,
1.275666666666667E+009,2.230222336947918E-002,7.167569547891617E-002,-6.985229253768921E-001,6.833914518356323E-001,2.230222336947918E-002,7.167569547891617E-002,-6.985229253768921E-001,6.833914518356323E-001,
1.284033333333334E+009,2.148162387311459E-002,5.118337273597717E-002,-6.911364197731018E-001,7.063965797424316E-001,2.148162387311459E-002,5.118337273597717E-002,-6.911364197731018E-001,7.063965797424316E-001,
1.292400000000000E+009,9.973803535103798E-003,3.571432083845139E-002,-6.773837804794312E-001,7.224479913711548E-001,9.973803535103798E-003,3.571432083845139E-002,-6.773837804794312E-001,7.224479913711548E-001,
1.300766666666667E+009,-8.882581256330013E-003,2.846625074744225E-002,-6.520605087280273E-001,7.398403882980347E-001,-8.882581256330013E-003,2.846625074744225E-002,-6.520605087280273E-001,7.398403882980347E-001,
1.309133333333334E+009,-2.818240784108639E-002,3.375703468918800E-002,-6.374555230140686E-001,7.559719085693359E-001,-2.818240784108639E-002,3.375703468918800E-002,-6.374555230140686E-001,7.559719085693359E-001,
1.317500000000000E+009,-4.077050089836121E-002,4.992683604359627E-002,-6.112605929374695E-001,7.704646587371826E-001,-4.077050089836121E-002,4.992683604359627E-002,-6.112605929374695E-001,7.704646587371826E-001,
1.325866666666667E+009,-4.305424541234970E-002,7.049152255058289E-002,-5.941847562789917E-001,7.822710275650024E-001,-4.305424541234970E-002,7.049152255058289E-002,-5.941847562789917E-001,7.822710275650024E-001,
1.334233333333334E+009,-3.429673984646797E-002,8.889663964509964E-002,-5.658125877380371E-001,8.002988696098328E-001,-3.429673984646797E-002,8.889663964509964E-002,-5.658125877380371E-001,8.002988696098328E-001,
1.342600000000000E+009,-1.830687932670116E-002,9.834152460098267E-002,-5.474498867988586E-001,8.159615993499756E-001,-1.830687932670116E-002,9.834152460098267E-002,-5.474498867988586E-001,8.159615993499756E-001,
1.350966666666667E+009,1.262051053345203E-003,9.776163101196289E-002,-5.183541774749756E-001,8.407824039459229E-001,1.262051053345203E-003,9.776163101196289E-002,-5.183541774749756E-001,8.407824039459229E-001,
1.359333333333334E+009,1.616728678345680E-002,8.695590496063232E-002,-5.088540315628052E-001,8.421878218650818E-001,1.616728678345680E-002,8.695590496063232E-002,-5.088540315628052E-001,8.421878218650818E-001,
1.367700000000000E+009,2.008122764527798E-002,6.562247872352600E-002,-4.916681647300720E-001,8.516999483108521E-001,2.008122764527798E-002,6.562247872352600E-002,-4.916681647300720E-001,8.516999483108521E-001,
1.376066666666667E+009,1.550654228776693E-002,4.825788363814354E-002,-4.746619164943695E-001,8.709104061126709E-001,1.550654228776693E-002,4.825788363814354E-002,-4.746619164943695E-001,8.709104061126709E-001,
1.384433333333334E+009,-1.352876308374107E-003,3.347528353333473E-002,-4.482476115226746E-001,8.945673108100891E-001,-1.352876308374107E-003,3.347528353333473E-002,-4.482476115226746E-001,8.945673108100891E-001,
1.392800000000000E+009,-2.223570086061955E-002,3.309140726923943E-002,-4.308980703353882E-001,8.896386623382568E-001,-2.223570086061955E-002,3.309140726923943E-002,-4.308980703353882E-001,8.896386623382568E-001,
1.401166666666667E+009,-4.120732098817825E-002,4.571521654725075E-002,-4.039107561111450E-001,9.081016778945923E-001,-4.120732098817825E-002,4.571521654725075E-002,-4.039107561111450E-001,9.081016778945923E-001,
1.409533333333334E+009,-5.172711238265038E-002,6.333602964878082E-002,-3.697980344295502E-001,9.153307080268860E-001,-5.172711238265038E-002,6.333602964878082E-002,-3.697980344295502E-001,9.153307080268860E-001,
1.417900000000000E+009,-5.013584345579147E-002,8.943634480237961E-002,-3.577139377593994E-001,9.072806835174561E-001,-5.013584345579147E-002,8.943634480237961E-002,-3.577139377593994E-001,9.072806835174561E-001,
1.426266666666667E+009,-3.463052958250046E-002,1.078208088874817E-001,-3.242242038249970E-001,9.291329383850098E-001,-3.463052958250046E-002,1.078208088874817E-001,-3.242242038249970E-001,9.291329383850098E-001,
1.434633333333334E+009,-1.446577254682779E-002,1.185195371508598E-001,-2.941551506519318E-001,9.351458549499512E-001,-1.446577254682779E-002,1.185195371508598E-001,-2.941551506519318E-001,9.351458549499512E-001,
1.443000000000000E+009,8.275322616100311E-003,1.168594956398010E-001,-2.801643311977387E-001,9.395392537117004E-001,8.275322616100311E-003,1.168594956398010E-001,-2.801643311977387E-001,9.395392537117004E-001,
1.451366666666667E+009,2.443763799965382E-002,1.039857938885689E-001,-2.519905269145966E-001,9.426230788230896E-001,2.443763799965382E-002,1.039857938885689E-001,-2.519905269145966E-001,9.426230788230896E-001,
1.459733333333334E+009,3.308599814772606E-002,8.306074887514114E-002,-2.327249944210053E-001,9.504503607749939E-001,3.308599814772606E-002,8.306074887514114E-002,-2.327249944210053E-001,9.504503607749939E-001,
