% Version 1.00
%
%freq[Hz],re:Trc1_S11,im:Trc1_S11,re:Trc2_S21,im:Trc2_S21,re:Trc3_S11,im:Trc3_S11,re:Trc4_S21,im:Trc4_S21,
6.900000000000000E+008,-1.707161031663418E-002,1.625392585992813E-002,-4.656698703765869E-001,-8.715190887451172E-001,-1.707161031663418E-002,1.625392585992813E-002,-4.656698703765869E-001,-8.715190887451172E-001,
6.983666666666666E+008,-7.499462924897671E-003,1.714700274169445E-002,-4.889425933361054E-001,-8.638708591461182E-001,-7.499462924897671E-003,1.714700274169445E-002,-4.889425933361054E-001,-8.638708591461182E-001,
7.067333333333334E+008,-7.442660280503333E-004,1.211219932883978E-002,-5.356783866882324E-001,-8.030431866645813E-001,-7.442660280503333E-004,1.211219932883978E-002,-5.356783866882324E-001,-8.030431866645813E-001,
7.151000000000000E+008,-4.628437091014348E-005,4.049501847475767E-003,-5.536335110664368E-001,-8.178668022155762E-001,-4.628437091014348E-005,4.049501847475767E-003,-5.536335110664368E-001,-8.178668022155762E-001,
7.234666666666666E+008,-3.216147888451815E-003,-1.926978235132992E-003,-5.653125047683716E-001,-8.069420456886292E-001,-3.216147888451815E-003,-1.926978235132992E-003,-5.653125047683716E-001,-8.069420456886292E-001,
7.318333333333334E+008,-1.039193850010634E-002,-5.431450903415680E-003,-5.801957845687866E-001,-8.060566782951355E-001,-1.039193850010634E-002,-5.431450903415680E-003,-5.801957845687866E-001,-8.060566782951355E-001,
7.402000000000000E+008,-1.743739470839500E-002,-5.951244849711657E-003,-6.250334382057190E-001,-7.911632657051086E-001,-1.743739470839500E-002,-5.951244849711657E-003,-6.250334382057190E-001,-7.911632657051086E-001,
7.485666666666666E+008,-2.555502206087112E-002,-9.438273846171796E-004,-6.235226392745972E-001,-7.880409359931946E-001,-2.555502206087112E-002,-9.438273846171796E-004,-6.235226392745972E-001,-7.880409359931946E-001,
7.569333333333334E+008,-2.825073525309563E-002,6.096194032579660E-003,-6.320220828056335E-001,-7.668595314025879E-001,-2.825073525309563E-002,6.096194032579660E-003,-6.320220828056335E-001,-7.668595314025879E-001,
7.653000000000000E+008,-2.492960728704929E-002,1.328776683658361E-002,-6.514669060707092E-001,-7.484548687934876E-001,-2.492960728704929E-002,1.328776683658361E-002,-6.514669060707092E-001,-7.484548687934876E-001,
7.736666666666666E+008,-1.879232749342918E-002,1.952946558594704E-002,-6.852253675460815E-001,-7.239536643028259E-001,-1.879232749342918E-002,1.952946558594704E-002,-6.852253675460815E-001,-7.239536643028259E-001,
7.820333333333334E+008,-1.049595884978771E-002,2.236037515103817E-002,-6.970595121383667E-001,-7.124276161193848E-001,-1.049595884978771E-002,2.236037515103817E-002,-6.970595121383667E-001,-7.124276161193848E-001,
7.904000000000000E+008,-6.824307492934167E-004,2.129452675580978E-002,-7.017287611961365E-001,-6.915026307106018E-001,-6.824307492934167E-004,2.129452675580978E-002,-7.017287611961365E-001,-6.915026307106018E-001,
7.987666666666666E+008,4.122340586036444E-003,1.591935008764267E-002,-7.370926141738892E-001,-6.718290448188782E-001,4.122340586036444E-003,1.591935008764267E-002,-7.370926141738892E-001,-6.718290448188782E-001,
8.071333333333334E+008,6.997728254646063E-003,1.061384472995997E-002,-7.421286702156067E-001,-6.610563993453980E-001,6.997728254646063E-003,1.061384472995997E-002,-7.421286702156067E-001,-6.610563993453980E-001,
8.155000000000000E+008,1.588306506164372E-003,3.798966528847814E-003,-7.661536931991577E-001,-6.407005190849304E-001,1.588306506164372E-003,3.798966528847814E-003,-7.661536931991577E-001,-6.407005190849304E-001,
8.238666666666666E+008,-3.000836586579680E-003,-7.100768270902336E-004,-7.678651213645935E-001,-6.119697093963623E-001,-3.000836586579680E-003,-7.100768270902336E-004,-7.678651213645935E-001,-6.119697093963623E-001,
8.322333333333334E+008,-1.095926482230425E-002,-1.011036452837288E-003,-7.901009917259216E-001,-5.938515663146973E-001,-1.095926482230425E-002,-1.011036452837288E-003,-7.901009917259216E-001,-5.938515663146973E-001,
8.406000000000000E+008,-1.812146231532097E-002,2.618665108457208E-003,-8.012349009513855E-001,-5.824162960052490E-001,-1.812146231532097E-002,2.618665108457208E-003,-8.012349009513855E-001,-5.824162960052490E-001,
8.489666666666668E+008,-2.293368615210056E-002,8.984511718153954E-003,-8.127216100692749E-001,-5.680541396141052E-001,-2.293368615210056E-002,8.984511718153954E-003,-8.127216100692749E-001,-5.680541396141052E-001,
8.573333333333334E+008,-2.218480408191681E-002,1.686496473848820E-002,-8.319244980812073E-001,-5.287267565727234E-001,-2.218480408191681E-002,1.686496473848820E-002,-8.319244980812073E-001,-5.287267565727234E-001,
8.657000000000000E+008,-1.595869101583958E-002,2.368385158479214E-002,-8.496854305267334E-001,-5.096029639244080E-001,-1.595869101583958E-002,2.368385158479214E-002,-8.496854305267334E-001,-5.096029639244080E-001,
8.740666666666668E+008,-9.035917930305004E-003,2.687344327569008E-002,-8.484877347946167E-001,-4.978976249694824E-001,-9.035917930305004E-003,2.687344327569008E-002,-8.484877347946167E-001,-4.978976249694824E-001,
8.824333333333334E+008,3.034308028873056E-004,2.671243995428085E-002,-8.663529157638550E-001,-4.839251935482025E-001,3.034308028873056E-004,2.671243995428085E-002,-8.663529157638550E-001,-4.839251935482025E-001,
8.908000000000000E+008,8.834499865770340E-003,2.242770045995712E-002,-8.685429096221924E-001,-4.521795511245728E-001,8.834499865770340E-003,2.242770045995712E-002,-8.685429096221924E-001,-4.521795511245728E-001,
8.991666666666668E+008,1.247741933912039E-002,1.593950204551220E-002,-8.841574192047119E-001,-4.258843958377838E-001,1.247741933912039E-002,1.593950204551220E-002,-8.841574192047119E-001,-4.258843958377838E-001,
9.075333333333334E+008,1.209015399217606E-002,8.963399566709995E-003,-9.144710302352905E-001,-4.089895784854889E-001,1.209015399217606E-002,8.963399566709995E-003,-9.144710302352905E-001,-4.089895784854889E-001,
9.159000000000000E+008,8.519031107425690E-003,6.264923140406609E-003,-9.209606051445007E-001,-3.809799849987030E-001,8.519031107425690E-003,6.264923140406609E-003,-9.209606051445007E-001,-3.809799849987030E-001,
9.242666666666668E+008,2.544163260608912E-003,2.932929433882237E-003,-9.275180697441101E-001,-3.670354187488556E-001,2.544163260608912E-003,2.932929433882237E-003,-9.275180697441101E-001,-3.670354187488556E-001,
9.326333333333334E+008,-6.007777061313391E-003,3.611333202570677E-003,-9.490219950675964E-001,-3.450248241424561E-001,-6.007777061313391E-003,3.611333202570677E-003,-9.490219950675964E-001,-3.450248241424561E-001,
9.410000000000000E+008,-1.102062966674566E-002,8.013820275664330E-003,-9.437144994735718E-001,-3.124849200248718E-001,-1.102062966674566E-002,8.013820275664330E-003,-9.437144994735718E-001,-3.124849200248718E-001,
9.493666666666668E+008,-1.383149810135365E-002,1.456096488982439E-002,-9.431287050247192E-001,-2.947659790515900E-001,-1.383149810135365E-002,1.456096488982439E-002,-9.431287050247192E-001,-2.947659790515900E-001,
9.577333333333334E+008,-1.269313879311085E-002,2.337188832461834E-002,-9.599494934082031E-001,-2.725674211978912E-001,-1.269313879311085E-002,2.337188832461834E-002,-9.599494934082031E-001,-2.725674211978912E-001,
9.661000000000000E+008,-6.145352497696877E-003,3.060072474181652E-002,-9.597984552383423E-001,-2.488360106945038E-001,-6.145352497696877E-003,3.060072474181652E-002,-9.597984552383423E-001,-2.488360106945038E-001,
9.744666666666668E+008,1.450166688300669E-003,3.200049325823784E-002,-9.671558141708374E-001,-2.250887453556061E-001,1.450166688300669E-003,3.200049325823784E-002,-9.671558141708374E-001,-2.250887453556061E-001,
9.828333333333334E+008,1.403602305799723E-002,2.993499860167503E-002,-9.709624648094177E-001,-2.045387327671051E-001,1.403602305799723E-002,2.993499860167503E-002,-9.709624648094177E-001,-2.045387327671051E-001,
9.912000000000000E+008,2.112716808915138E-002,2.408786118030548E-002,-9.719892144203186E-001,-1.772625148296356E-001,2.112716808915138E-002,2.408786118030548E-002,-9.719892144203186E-001,-1.772625148296356E-001,
9.995666666666668E+008,2.732940576970577E-002,1.617980375885963E-002,-9.894564747810364E-001,-1.408404707908630E-001,2.732940576970577E-002,1.617980375885963E-002,-9.894564747810364E-001,-1.408404707908630E-001,
1.007933333333333E+009,2.705888077616692E-002,7.184956222772598E-003,-9.872399568557739E-001,-1.260961145162582E-001,2.705888077616692E-002,7.184956222772598E-003,-9.872399568557739E-001,-1.260961145162582E-001,
1.016300000000000E+009,2.104478329420090E-002,1.551860943436623E-003,-9.905806779861450E-001,-9.932731091976166E-002,2.104478329420090E-002,1.551860943436623E-003,-9.905806779861450E-001,-9.932731091976166E-002,
1.024666666666667E+009,1.335489191114903E-002,-4.618146922439337E-003,-9.923465251922607E-001,-6.777609884738922E-002,1.335489191114903E-002,-4.618146922439337E-003,-9.923465251922607E-001,-6.777609884738922E-002,
1.033033333333333E+009,5.568552296608686E-003,-1.637807465158403E-003,-9.922174215316773E-001,-4.941619187593460E-002,5.568552296608686E-003,-1.637807465158403E-003,-9.922174215316773E-001,-4.941619187593460E-002,
1.041400000000000E+009,-1.693198573775590E-003,4.418078809976578E-003,-9.800716638565064E-001,-1.130623463541269E-002,-1.693198573775590E-003,4.418078809976578E-003,-9.800716638565064E-001,-1.130623463541269E-002,
1.049766666666667E+009,-4.268904216587544E-003,1.313543505966663E-002,-9.934936761856079E-001,7.118526846170425E-003,-4.268904216587544E-003,1.313543505966663E-002,-9.934936761856079E-001,7.118526846170425E-003,
1.058133333333333E+009,-4.021774511784315E-004,2.047746255993843E-002,-9.893069863319397E-001,2.466483786702156E-002,-4.021774511784315E-004,2.047746255993843E-002,-9.893069863319397E-001,2.466483786702156E-002,
1.066500000000000E+009,8.492691442370415E-003,2.590887993574143E-002,-9.984520673751831E-001,6.239047273993492E-002,8.492691442370415E-003,2.590887993574143E-002,-9.984520673751831E-001,6.239047273993492E-002,
1.074866666666667E+009,1.864582300186157E-002,2.508154511451721E-002,-9.825474619865418E-001,8.084399253129959E-002,1.864582300186157E-002,2.508154511451721E-002,-9.825474619865418E-001,8.084399253129959E-002,
1.083233333333334E+009,2.928721532225609E-002,1.549291051924229E-002,-9.817450046539307E-001,1.025200784206390E-001,2.928721532225609E-002,1.549291051924229E-002,-9.817450046539307E-001,1.025200784206390E-001,
1.091600000000000E+009,3.577443212270737E-002,6.093374919146299E-003,-9.743098020553589E-001,1.244953125715256E-001,3.577443212270737E-002,6.093374919146299E-003,-9.743098020553589E-001,1.244953125715256E-001,
1.099966666666667E+009,3.690453618764877E-002,-7.346816826611757E-003,-9.794732928276062E-001,1.623082607984543E-001,3.690453618764877E-002,-7.346816826611757E-003,-9.794732928276062E-001,1.623082607984543E-001,
1.108333333333334E+009,2.842590771615505E-002,-1.791055127978325E-002,-9.573155641555786E-001,1.665433049201965E-001,2.842590771615505E-002,-1.791055127978325E-002,-9.573155641555786E-001,1.665433049201965E-001,
1.116700000000000E+009,1.584894582629204E-002,-1.818854361772537E-002,-9.599736332893372E-001,2.110059857368469E-001,1.584894582629204E-002,-1.818854361772537E-002,-9.599736332893372E-001,2.110059857368469E-001,
1.125066666666667E+009,2.156853210180998E-003,-1.826574839651585E-002,-9.652822613716126E-001,2.198286354541779E-001,2.156853210180998E-003,-1.826574839651585E-002,-9.652822613716126E-001,2.198286354541779E-001,
1.133433333333334E+009,-8.358486928045750E-003,-6.085416302084923E-003,-9.669725298881531E-001,2.437011897563934E-001,-8.358486928045750E-003,-6.085416302084923E-003,-9.669725298881531E-001,2.437011897563934E-001,
1.141800000000000E+009,-1.136026065796614E-002,6.268833298236132E-003,-9.409083724021912E-001,2.655553817749023E-001,-1.136026065796614E-002,6.268833298236132E-003,-9.409083724021912E-001,2.655553817749023E-001,
1.150166666666667E+009,-7.354990113526583E-003,2.242945507168770E-002,-9.270091056823731E-001,2.964439094066620E-001,-7.354990113526583E-003,2.242945507168770E-002,-9.270091056823731E-001,2.964439094066620E-001,
1.158533333333334E+009,5.048586055636406E-003,3.160071372985840E-002,-9.311007261276245E-001,3.211093842983246E-001,5.048586055636406E-003,3.160071372985840E-002,-9.311007261276245E-001,3.211093842983246E-001,
1.166900000000000E+009,2.295784279704094E-002,3.278555348515511E-002,-9.239436388015747E-001,3.545165657997131E-001,2.295784279704094E-002,3.278555348515511E-002,-9.239436388015747E-001,3.545165657997131E-001,
1.175266666666667E+009,3.849779441952705E-002,2.307862788438797E-002,-9.148543477058411E-001,3.606556653976440E-001,3.849779441952705E-002,2.307862788438797E-002,-9.148543477058411E-001,3.606556653976440E-001,
1.183633333333334E+009,5.047957599163055E-002,8.284246549010277E-003,-9.058357477188110E-001,3.992377817630768E-001,5.047957599163055E-002,8.284246549010277E-003,-9.058357477188110E-001,3.992377817630768E-001,
1.192000000000000E+009,5.262180045247078E-002,-1.205158513039351E-002,-8.960575461387634E-001,4.071084558963776E-001,5.262180045247078E-002,-1.205158513039351E-002,-8.960575461387634E-001,4.071084558963776E-001,
1.200366666666667E+009,4.330174997448921E-002,-2.793181315064430E-002,-8.884689807891846E-001,4.351474940776825E-001,4.330174997448921E-002,-2.793181315064430E-002,-8.884689807891846E-001,4.351474940776825E-001,
1.208733333333334E+009,2.861775085330010E-002,-3.876226395368576E-002,-8.834810853004456E-001,4.520120918750763E-001,2.861775085330010E-002,-3.876226395368576E-002,-8.834810853004456E-001,4.520120918750763E-001,
1.217100000000000E+009,1.026459224522114E-002,-3.610967472195625E-002,-8.690310716629028E-001,4.720642566680908E-001,1.026459224522114E-002,-3.610967472195625E-002,-8.690310716629028E-001,4.720642566680908E-001,
1.225466666666667E+009,-2.188737969845533E-003,-2.782627753913403E-002,-8.465788960456848E-001,4.999713897705078E-001,-2.188737969845533E-003,-2.782627753913403E-002,-8.465788960456848E-001,4.999713897705078E-001,
1.233833333333334E+009,-1.092131435871124E-002,-1.169860456138849E-002,-8.321390151977539E-001,5.186895728111267E-001,-1.092131435871124E-002,-1.169860456138849E-002,-8.321390151977539E-001,5.186895728111267E-001,
1.242200000000000E+009,-9.684805758297443E-003,6.308673415333033E-003,-8.191288709640503E-001,5.315341949462891E-001,-9.684805758297443E-003,6.308673415333033E-003,-8.191288709640503E-001,5.315341949462891E-001,
1.250566666666667E+009,3.194290213286877E-003,1.821221224963665E-002,-7.954797744750977E-001,5.612714886665344E-001,3.194290213286877E-003,1.821221224963665E-002,-7.954797744750977E-001,5.612714886665344E-001,
1.258933333333334E+009,2.049349620938301E-002,2.165284566581249E-002,-8.068021535873413E-001,5.809420347213745E-001,2.049349620938301E-002,2.165284566581249E-002,-8.068021535873413E-001,5.809420347213745E-001,
1.267300000000000E+009,3.833100199699402E-002,1.280968729406595E-002,-7.875885963439941E-001,5.949836373329163E-001,3.833100199699402E-002,1.280968729406595E-002,-7.875885963439941E-001,5.949836373329163E-001,
1.275666666666667E+009,4.954012855887413E-002,-4.747919272631407E-003,-7.559887766838074E-001,6.207215785980225E-001,4.954012855887413E-002,-4.747919272631407E-003,-7.559887766838074E-001,6.207215785980225E-001,
1.284033333333334E+009,5.044239386916161E-002,-2.641886286437511E-002,-7.501071095466614E-001,6.411336064338684E-001,5.044239386916161E-002,-2.641886286437511E-002,-7.501071095466614E-001,6.411336064338684E-001,
1.292400000000000E+009,4.072795063257217E-002,-4.532847926020622E-002,-7.387377619743347E-001,6.567928791046143E-001,4.072795063257217E-002,-4.532847926020622E-002,-7.387377619743347E-001,6.567928791046143E-001,
1.300766666666667E+009,2.308485470712185E-002,-5.584981292486191E-002,-7.158858776092529E-001,6.737441420555115E-001,2.308485470712185E-002,-5.584981292486191E-002,-7.158858776092529E-001,6.737441420555115E-001,
1.309133333333334E+009,1.501112245023251E-003,-5.557263270020485E-002,-7.048966884613037E-001,6.908491253852844E-001,1.501112245023251E-003,-5.557263270020485E-002,-7.048966884613037E-001,6.908491253852844E-001,
1.317500000000000E+009,-1.370297744870186E-002,-4.474710673093796E-002,-6.821530461311340E-001,7.059568762779236E-001,-1.370297744870186E-002,-4.474710673093796E-002,-6.821530461311340E-001,7.059568762779236E-001,
1.325866666666667E+009,-2.121736481785774E-002,-2.545762620866299E-002,-6.683403849601746E-001,7.214261889457703E-001,-2.121736481785774E-002,-2.545762620866299E-002,-6.683403849601746E-001,7.214261889457703E-001,
1.334233333333334E+009,-1.711119338870049E-002,-6.876380648463965E-003,-6.425589919090271E-001,7.432748079299927E-001,-1.711119338870049E-002,-6.876380648463965E-003,-6.425589919090271E-001,7.432748079299927E-001,
1.342600000000000E+009,-5.102493800222874E-003,4.503256641328335E-003,-6.258146166801453E-001,7.626041769981384E-001,-5.102493800222874E-003,4.503256641328335E-003,-6.258146166801453E-001,7.626041769981384E-001,
1.350966666666667E+009,1.253353245556355E-002,6.141610443592072E-003,-5.982301831245422E-001,7.894097566604614E-001,1.253353245556355E-002,6.141610443592072E-003,-5.982301831245422E-001,7.894097566604614E-001,
1.359333333333334E+009,2.852763608098030E-002,-3.009663661941886E-003,-5.871939063072205E-001,7.924992442131043E-001,2.852763608098030E-002,-3.009663661941886E-003,-5.871939063072205E-001,7.924992442131043E-001,
1.367700000000000E+009,3.336351364850998E-002,-2.281711623072624E-002,-5.704836249351502E-001,8.023550510406494E-001,3.336351364850998E-002,-2.281711623072624E-002,-5.704836249351502E-001,8.023550510406494E-001,
1.376066666666667E+009,3.060357645153999E-002,-4.196146503090859E-002,-5.555090904235840E-001,8.203008770942688E-001,3.060357645153999E-002,-4.196146503090859E-002,-5.555090904235840E-001,8.203008770942688E-001,
1.384433333333334E+009,1.497126650065184E-002,-6.071306765079498E-002,-5.317848920822144E-001,8.434591293334961E-001,1.497126650065184E-002,-6.071306765079498E-002,-5.317848920822144E-001,8.434591293334961E-001,
1.392800000000000E+009,-6.541366688907147E-003,-6.635455787181854E-002,-5.170204043388367E-001,8.385225534439087E-001,-6.541366688907147E-003,-6.635455787181854E-002,-5.170204043388367E-001,8.385225534439087E-001,
1.401166666666667E+009,-2.820276841521263E-002,-6.000517681241036E-002,-4.948244392871857E-001,8.583081364631653E-001,-2.820276841521263E-002,-6.000517681241036E-002,-4.948244392871857E-001,8.583081364631653E-001,
1.409533333333334E+009,-4.395370185375214E-002,-4.499899595975876E-002,-4.648533463478088E-001,8.704167604446411E-001,-4.395370185375214E-002,-4.499899595975876E-002,-4.648533463478088E-001,8.704167604446411E-001,
1.417900000000000E+009,-4.871484637260437E-002,-2.027390152215958E-002,-4.524777829647064E-001,8.655247092247009E-001,-4.871484637260437E-002,-2.027390152215958E-002,-4.524777829647064E-001,8.655247092247009E-001,
1.426266666666667E+009,-4.004169255495071E-002,-1.010055770166218E-003,-4.228995144367218E-001,8.921632170677185E-001,-4.004169255495071E-002,-1.010055770166218E-003,-4.228995144367218E-001,8.921632170677185E-001,
1.434633333333334E+009,-2.319262735545635E-002,1.315455697476864E-002,-3.922189772129059E-001,9.035484790802002E-001,-2.319262735545635E-002,1.315455697476864E-002,-3.922189772129059E-001,9.035484790802002E-001,
1.443000000000000E+009,-2.882309723645449E-003,1.570837385952473E-002,-3.772953152656555E-001,9.097682833671570E-001,-2.882309723645449E-003,1.570837385952473E-002,-3.772953152656555E-001,9.097682833671570E-001,
1.451366666666667E+009,1.452103070914745E-002,6.309110205620527E-003,-3.471044600009918E-001,9.155007004737854E-001,1.452103070914745E-002,6.309110205620527E-003,-3.471044600009918E-001,9.155007004737854E-001,
1.459733333333334E+009,2.436594851315022E-002,-1.399507932364941E-002,-3.300175964832306E-001,9.223219156265259E-001,2.436594851315022E-002,-1.399507932364941E-002,-3.300175964832306E-001,9.223219156265259E-001,
