% Version 1.00
%
%freq[Hz],re:Trc1_S11,im:Trc1_S11,re:Trc2_S21,im:Trc2_S21,re:Trc3_S11,im:Trc3_S11,re:Trc4_S21,im:Trc4_S21,
6.900000000000000E+008,-3.122279606759548E-002,5.189630016684532E-002,-4.980583190917969E-001,-8.502614498138428E-001,-3.122279606759548E-002,5.189630016684532E-002,-4.980583190917969E-001,-8.502614498138428E-001,
6.983666666666666E+008,-2.110015973448753E-002,5.271352827548981E-002,-5.204010009765625E-001,-8.403864502906799E-001,-2.110015973448753E-002,5.271352827548981E-002,-5.204010009765625E-001,-8.403864502906799E-001,
7.067333333333334E+008,-1.427066512405872E-002,4.799260571599007E-002,-5.656451582908630E-001,-7.795820832252502E-001,-1.427066512405872E-002,4.799260571599007E-002,-5.656451582908630E-001,-7.795820832252502E-001,
7.151000000000000E+008,-1.296137832105160E-002,4.056755080819130E-002,-5.847979187965393E-001,-7.933027744293213E-001,-1.296137832105160E-002,4.056755080819130E-002,-5.847979187965393E-001,-7.933027744293213E-001,
7.234666666666666E+008,-1.564149558544159E-002,3.562168404459953E-002,-5.966280102729797E-001,-7.804942727088928E-001,-1.564149558544159E-002,3.562168404459953E-002,-5.966280102729797E-001,-7.804942727088928E-001,
7.318333333333334E+008,-2.200703322887421E-002,3.342111781239510E-002,-6.103127002716065E-001,-7.800363302230835E-001,-2.200703322887421E-002,3.342111781239510E-002,-6.103127002716065E-001,-7.800363302230835E-001,
7.402000000000000E+008,-2.790269814431667E-002,3.416279330849648E-002,-6.569046974182129E-001,-7.613694071769714E-001,-2.790269814431667E-002,3.416279330849648E-002,-6.569046974182129E-001,-7.613694071769714E-001,
7.485666666666666E+008,-3.411038219928742E-002,4.055406525731087E-002,-6.555916666984558E-001,-7.582391500473023E-001,-3.411038219928742E-002,4.055406525731087E-002,-6.555916666984558E-001,-7.582391500473023E-001,
7.569333333333334E+008,-3.473214805126190E-002,4.879322648048401E-002,-6.636765003204346E-001,-7.374239563941956E-001,-3.473214805126190E-002,4.879322648048401E-002,-6.636765003204346E-001,-7.374239563941956E-001,
7.653000000000000E+008,-2.900429628789425E-002,5.666925013065338E-002,-6.820272207260132E-001,-7.171445488929749E-001,-2.900429628789425E-002,5.666925013065338E-002,-6.820272207260132E-001,-7.171445488929749E-001,
7.736666666666666E+008,-2.134602703154087E-002,6.299896538257599E-002,-7.145100831985474E-001,-6.918699145317078E-001,-2.134602703154087E-002,6.299896538257599E-002,-7.145100831985474E-001,-6.918699145317078E-001,
7.820333333333334E+008,-1.130544673651457E-002,6.588633358478546E-002,-7.256401181221008E-001,-6.780501604080200E-001,-1.130544673651457E-002,6.588633358478546E-002,-7.256401181221008E-001,-6.780501604080200E-001,
7.904000000000000E+008,-2.897226368077099E-004,6.499836593866348E-002,-7.302501201629639E-001,-6.568422317504883E-001,-2.897226368077099E-004,6.499836593866348E-002,-7.302501201629639E-001,-6.568422317504883E-001,
7.987666666666666E+008,5.101474467664957E-003,5.952740088105202E-002,-7.640998363494873E-001,-6.367686390876770E-001,5.101474467664957E-003,5.952740088105202E-002,-7.640998363494873E-001,-6.367686390876770E-001,
8.071333333333334E+008,8.606256917119026E-003,5.453683435916901E-002,-7.705506682395935E-001,-6.264621019363403E-001,8.606256917119026E-003,5.453683435916901E-002,-7.705506682395935E-001,-6.264621019363403E-001,
8.155000000000000E+008,3.182054730132222E-003,4.864666238427162E-002,-7.926474809646606E-001,-6.036295890808106E-001,3.182054730132222E-003,4.864666238427162E-002,-7.926474809646606E-001,-6.036295890808106E-001,
8.238666666666666E+008,7.299274438992143E-004,4.500722512602806E-002,-7.943099141120911E-001,-5.759521722793579E-001,7.299274438992143E-004,4.500722512602806E-002,-7.943099141120911E-001,-5.759521722793579E-001,
8.322333333333334E+008,-5.545507650822401E-003,4.513541981577873E-002,-8.154004216194153E-001,-5.539051294326782E-001,-5.545507650822401E-003,4.513541981577873E-002,-8.154004216194153E-001,-5.539051294326782E-001,
8.406000000000000E+008,-1.058515626937151E-002,4.894093051552773E-002,-8.267521858215332E-001,-5.406131148338318E-001,-1.058515626937151E-002,4.894093051552773E-002,-8.267521858215332E-001,-5.406131148338318E-001,
8.489666666666668E+008,-1.337825227528811E-002,5.633635818958283E-002,-8.383058309555054E-001,-5.268853902816773E-001,-1.337825227528811E-002,5.633635818958283E-002,-8.383058309555054E-001,-5.268853902816773E-001,
8.573333333333334E+008,-1.089239306747913E-002,6.395287811756134E-002,-8.550103902816773E-001,-4.858339130878449E-001,-1.089239306747913E-002,6.395287811756134E-002,-8.550103902816773E-001,-4.858339130878449E-001,
8.657000000000000E+008,-1.123752212151885E-003,7.104766368865967E-002,-8.724650144577026E-001,-4.654435515403748E-001,-1.123752212151885E-003,7.104766368865967E-002,-8.724650144577026E-001,-4.654435515403748E-001,
8.740666666666668E+008,7.624551653862000E-003,7.362068444490433E-002,-8.687840104103088E-001,-4.535094201564789E-001,7.624551653862000E-003,7.362068444490433E-002,-8.687840104103088E-001,-4.535094201564789E-001,
8.824333333333334E+008,1.853934861719608E-002,7.279628515243530E-002,-8.868466615676880E-001,-4.384248554706574E-001,1.853934861719608E-002,7.279628515243530E-002,-8.868466615676880E-001,-4.384248554706574E-001,
8.908000000000000E+008,2.828355692327023E-002,6.783128529787064E-002,-8.875421285629273E-001,-4.070169329643250E-001,2.828355692327023E-002,6.783128529787064E-002,-8.875421285629273E-001,-4.070169329643250E-001,
8.991666666666668E+008,3.252581506967545E-002,6.089995801448822E-002,-9.021242856979370E-001,-3.795656859874725E-001,3.252581506967545E-002,6.089995801448822E-002,-9.021242856979370E-001,-3.795656859874725E-001,
9.075333333333334E+008,3.363199159502983E-002,5.415785312652588E-002,-9.323811531066895E-001,-3.603707253932953E-001,3.363199159502983E-002,5.415785312652588E-002,-9.323811531066895E-001,-3.603707253932953E-001,
9.159000000000000E+008,3.135851770639420E-002,5.123327299952507E-002,-9.383928775787354E-001,-3.321715593338013E-001,3.135851770639420E-002,5.123327299952507E-002,-9.383928775787354E-001,-3.321715593338013E-001,
9.242666666666668E+008,2.661241032183170E-002,4.771639034152031E-002,-9.444241523742676E-001,-3.180001676082611E-001,2.661241032183170E-002,4.771639034152031E-002,-9.444241523742676E-001,-3.180001676082611E-001,
9.326333333333334E+008,1.954744011163712E-002,4.844862595200539E-002,-9.642958045005798E-001,-2.934514284133911E-001,1.954744011163712E-002,4.844862595200539E-002,-9.642958045005798E-001,-2.934514284133911E-001,
9.410000000000000E+008,1.654438488185406E-002,5.274275690317154E-002,-9.572744965553284E-001,-2.600486278533936E-001,1.654438488185406E-002,5.274275690317154E-002,-9.572744965553284E-001,-2.600486278533936E-001,
9.493666666666668E+008,1.644326187670231E-002,5.892099812626839E-002,-9.554302692413330E-001,-2.419009059667587E-001,1.644326187670231E-002,5.892099812626839E-002,-9.554302692413330E-001,-2.419009059667587E-001,
9.577333333333334E+008,1.981910318136215E-002,6.699109822511673E-002,-9.716999530792236E-001,-2.182517200708389E-001,1.981910318136215E-002,6.699109822511673E-002,-9.716999530792236E-001,-2.182517200708389E-001,
9.661000000000000E+008,2.959568612277508E-002,7.317261397838593E-002,-9.686251282691956E-001,-1.938868314027786E-001,2.959568612277508E-002,7.317261397838593E-002,-9.686251282691956E-001,-1.938868314027786E-001,
9.744666666666668E+008,3.872130811214447E-002,7.259904593229294E-002,-9.739111065864563E-001,-1.696153581142426E-001,3.872130811214447E-002,7.259904593229294E-002,-9.739111065864563E-001,-1.696153581142426E-001,
9.828333333333334E+008,5.307603254914284E-002,6.917902082204819E-002,-9.771487116813660E-001,-1.497817188501358E-001,5.307603254914284E-002,6.917902082204819E-002,-9.771487116813660E-001,-1.497817188501358E-001,
9.912000000000000E+008,6.119213998317719E-002,6.226550415158272E-002,-9.768664240837097E-001,-1.225773841142654E-001,6.119213998317719E-002,6.226550415158272E-002,-9.768664240837097E-001,-1.225773841142654E-001,
9.995666666666668E+008,6.778450310230255E-002,5.222006514668465E-002,-9.920000433921814E-001,-8.542428910732269E-002,6.778450310230255E-002,5.222006514668465E-002,-9.920000433921814E-001,-8.542428910732269E-002,
1.007933333333333E+009,6.815988570451737E-002,4.280223324894905E-002,-9.910646080970764E-001,-7.074473053216934E-002,6.815988570451737E-002,4.280223324894905E-002,-9.910646080970764E-001,-7.074473053216934E-002,
1.016300000000000E+009,6.273547559976578E-002,3.638526424765587E-002,-9.926413893699646E-001,-4.488053172826767E-002,6.273547559976578E-002,3.638526424765587E-002,-9.926413893699646E-001,-4.488053172826767E-002,
1.024666666666667E+009,5.587982013821602E-002,2.983135916292667E-002,-9.922015666961670E-001,-1.118467096239328E-002,5.587982013821602E-002,2.983135916292667E-002,-9.922015666961670E-001,-1.118467096239328E-002,
1.033033333333333E+009,4.928065836429596E-002,3.223209828138351E-002,-9.926874041557312E-001,7.311410736292601E-003,4.928065836429596E-002,3.223209828138351E-002,-9.926874041557312E-001,7.311410736292601E-003,
1.041400000000000E+009,4.380108043551445E-002,3.759876266121864E-002,-9.770702719688416E-001,4.622147604823113E-002,4.380108043551445E-002,3.759876266121864E-002,-9.770702719688416E-001,4.622147604823113E-002,
1.049766666666667E+009,4.394767433404923E-002,4.495728015899658E-002,-9.894070029258728E-001,6.591901183128357E-002,4.394767433404923E-002,4.495728015899658E-002,-9.894070029258728E-001,6.591901183128357E-002,
1.058133333333333E+009,5.008644983172417E-002,5.077585205435753E-002,-9.832193851470947E-001,8.400461077690125E-002,5.008644983172417E-002,5.077585205435753E-002,-9.832193851470947E-001,8.400461077690125E-002,
1.066500000000000E+009,6.195836514234543E-002,5.366498604416847E-002,-9.907702803611755E-001,1.238759681582451E-001,6.195836514234543E-002,5.366498604416847E-002,-9.907702803611755E-001,1.238759681582451E-001,
1.074866666666667E+009,7.281013578176498E-002,5.059194937348366E-002,-9.706235527992249E-001,1.415607631206513E-001,7.281013578176498E-002,5.059194937348366E-002,-9.706235527992249E-001,1.415607631206513E-001,
1.083233333333334E+009,8.458664268255234E-002,3.854208812117577E-002,-9.710066318511963E-001,1.621798872947693E-001,8.458664268255234E-002,3.854208812117577E-002,-9.710066318511963E-001,1.621798872947693E-001,
1.091600000000000E+009,9.123961627483368E-002,2.771486528217793E-002,-9.622861146926880E-001,1.829725056886673E-001,9.123961627483368E-002,2.771486528217793E-002,-9.622861146926880E-001,1.829725056886673E-001,
1.099966666666667E+009,9.294757246971130E-002,1.254730392247438E-002,-9.649728536605835E-001,2.208101451396942E-001,9.294757246971130E-002,1.254730392247438E-002,-9.649728536605835E-001,2.208101451396942E-001,
1.108333333333334E+009,8.416921645402908E-002,1.439417363144457E-003,-9.433556199073792E-001,2.248373031616211E-001,8.416921645402908E-002,1.439417363144457E-003,-9.433556199073792E-001,2.248373031616211E-001,
1.116700000000000E+009,7.055606693029404E-002,-5.934538785368204E-005,-9.437065124511719E-001,2.695270478725433E-001,7.055606693029404E-002,-5.934538785368204E-005,-9.437065124511719E-001,2.695270478725433E-001,
1.125066666666667E+009,5.831470340490341E-002,5.083268042653799E-004,-9.483479261398315E-001,2.805311977863312E-001,5.831470340490341E-002,5.083268042653799E-004,-9.483479261398315E-001,2.805311977863312E-001,
1.133433333333334E+009,4.973854497075081E-002,1.226491574198008E-002,-9.488362073898315E-001,3.047422468662262E-001,4.973854497075081E-002,1.226491574198008E-002,-9.488362073898315E-001,3.047422468662262E-001,
1.141800000000000E+009,4.943090304732323E-002,2.281068637967110E-002,-9.212064743041992E-001,3.271553516387940E-001,4.943090304732323E-002,2.281068637967110E-002,-9.212064743041992E-001,3.271553516387940E-001,
1.150166666666667E+009,5.653231590986252E-002,3.611924499273300E-002,-9.028784632682800E-001,3.581559658050537E-001,5.653231590986252E-002,3.611924499273300E-002,-9.028784632682800E-001,3.581559658050537E-001,
1.158533333333334E+009,7.103463262319565E-002,4.167628660798073E-002,-9.050744771957398E-001,3.818285465240479E-001,7.103463262319565E-002,4.167628660798073E-002,-9.050744771957398E-001,3.818285465240479E-001,
1.166900000000000E+009,9.033925086259842E-002,3.875308111310005E-002,-8.949412703514099E-001,4.150002896785736E-001,9.033925086259842E-002,3.875308111310005E-002,-8.949412703514099E-001,4.150002896785736E-001,
1.175266666666667E+009,1.054257079958916E-001,2.451639063656330E-002,-8.837035894393921E-001,4.214271306991577E-001,1.054257079958916E-001,2.451639063656330E-002,-8.837035894393921E-001,4.214271306991577E-001,
1.183633333333334E+009,1.165875494480133E-001,6.621281616389751E-003,-8.724030852317810E-001,4.570573270320892E-001,1.165875494480133E-001,6.621281616389751E-003,-8.724030852317810E-001,4.570573270320892E-001,
1.192000000000000E+009,1.171957030892372E-001,-1.572063751518726E-002,-8.631486892700195E-001,4.640216231346130E-001,1.171957030892372E-001,-1.572063751518726E-002,-8.631486892700195E-001,4.640216231346130E-001,
1.200366666666667E+009,1.059744730591774E-001,-3.229504451155663E-002,-8.538681268692017E-001,4.913248717784882E-001,1.059744730591774E-001,-3.229504451155663E-002,-8.538681268692017E-001,4.913248717784882E-001,
1.208733333333334E+009,9.040485322475433E-002,-4.267093911767006E-002,-8.490128517150879E-001,5.084605813026428E-001,9.040485322475433E-002,-4.267093911767006E-002,-8.490128517150879E-001,5.084605813026428E-001,
1.217100000000000E+009,7.216268032789230E-002,-4.021766781806946E-002,-8.343052864074707E-001,5.283120274543762E-001,7.216268032789230E-002,-4.021766781806946E-002,-8.343052864074707E-001,5.283120274543762E-001,
1.225466666666667E+009,6.078377738595009E-002,-3.295015171170235E-002,-8.095189332962036E-001,5.572115778923035E-001,6.078377738595009E-002,-3.295015171170235E-002,-8.095189332962036E-001,5.572115778923035E-001,
1.233833333333334E+009,5.390489846467972E-002,-1.730537228286266E-002,-7.922093272209168E-001,5.757740139961243E-001,5.390489846467972E-002,-1.730537228286266E-002,-7.922093272209168E-001,5.757740139961243E-001,
1.242200000000000E+009,5.796310305595398E-002,-1.821167650632560E-003,-7.784916758537293E-001,5.882959961891174E-001,5.796310305595398E-002,-1.821167650632560E-003,-7.784916758537293E-001,5.882959961891174E-001,
1.250566666666667E+009,7.260154932737351E-002,5.808212794363499E-003,-7.508466839790344E-001,6.156357526779175E-001,7.260154932737351E-002,5.808212794363499E-003,-7.508466839790344E-001,6.156357526779175E-001,
1.258933333333334E+009,8.997994661331177E-002,3.835146082565188E-003,-7.596821784973145E-001,6.362741589546204E-001,8.997994661331177E-002,3.835146082565188E-003,-7.596821784973145E-001,6.362741589546204E-001,
1.267300000000000E+009,1.065278947353363E-001,-1.034483127295971E-002,-7.371757030487061E-001,6.495328545570374E-001,1.065278947353363E-001,-1.034483127295971E-002,-7.371757030487061E-001,6.495328545570374E-001,
1.275666666666667E+009,1.156261116266251E-001,-3.094787709414959E-002,-7.039570808410645E-001,6.721014976501465E-001,1.156261116266251E-001,-3.094787709414959E-002,-7.039570808410645E-001,6.721014976501465E-001,
1.284033333333334E+009,1.136567071080208E-001,-5.516434833407402E-002,-6.962148547172546E-001,6.897619962692261E-001,1.136567071080208E-001,-5.516434833407402E-002,-6.962148547172546E-001,6.897619962692261E-001,
1.292400000000000E+009,1.015062555670738E-001,-7.518342137336731E-002,-6.865426301956177E-001,7.057455778121948E-001,1.015062555670738E-001,-7.518342137336731E-002,-6.865426301956177E-001,7.057455778121948E-001,
1.300766666666667E+009,8.219062536954880E-002,-8.419904857873917E-002,-6.624221801757813E-001,7.202917337417603E-001,8.219062536954880E-002,-8.419904857873917E-002,-6.624221801757813E-001,7.202917337417603E-001,
1.309133333333334E+009,5.960921570658684E-002,-8.382162451744080E-002,-6.515834927558899E-001,7.374396920204163E-001,5.960921570658684E-002,-8.382162451744080E-002,-6.515834927558899E-001,7.374396920204163E-001,
1.317500000000000E+009,4.614779725670815E-002,-7.315356284379959E-002,-6.265806555747986E-001,7.533554434776306E-001,4.614779725670815E-002,-7.315356284379959E-002,-6.265806555747986E-001,7.533554434776306E-001,
1.325866666666667E+009,3.944595530629158E-002,-5.479827523231506E-002,-6.119381189346314E-001,7.682915329933167E-001,3.944595530629158E-002,-5.479827523231506E-002,-6.119381189346314E-001,7.682915329933167E-001,
1.334233333333334E+009,4.502497240900993E-002,-3.907449543476105E-002,-5.832414627075195E-001,7.888110876083374E-001,4.502497240900993E-002,-3.907449543476105E-002,-5.832414627075195E-001,7.888110876083374E-001,
1.342600000000000E+009,5.760607495903969E-002,-3.221298381686211E-002,-5.639469027519226E-001,8.079767823219299E-001,5.760607495903969E-002,-3.221298381686211E-002,-5.639469027519226E-001,8.079767823219299E-001,
1.350966666666667E+009,7.440052181482315E-002,-3.578589484095573E-002,-5.319755673408508E-001,8.322334885597229E-001,7.440052181482315E-002,-3.578589484095573E-002,-5.319755673408508E-001,8.322334885597229E-001,
1.359333333333334E+009,8.883896470069885E-002,-4.938046634197235E-002,-5.213057994842529E-001,8.330587148666382E-001,8.883896470069885E-002,-4.938046634197235E-002,-5.213057994842529E-001,8.330587148666382E-001,
1.367700000000000E+009,8.912714570760727E-002,-7.209122925996780E-002,-5.031644105911255E-001,8.401100039482117E-001,8.912714570760727E-002,-7.209122925996780E-002,-5.031644105911255E-001,8.401100039482117E-001,
1.376066666666667E+009,8.248262107372284E-002,-9.296176582574844E-002,-4.877540469169617E-001,8.549165129661560E-001,8.248262107372284E-002,-9.296176582574844E-002,-4.877540469169617E-001,8.549165129661560E-001,
1.384433333333334E+009,6.365798413753510E-002,-1.114886850118637E-001,-4.620245397090912E-001,8.757311105728149E-001,6.365798413753510E-002,-1.114886850118637E-001,-4.620245397090912E-001,8.757311105728149E-001,
1.392800000000000E+009,4.053257033228874E-002,-1.158656924962997E-001,-4.499892592430115E-001,8.714160919189453E-001,4.053257033228874E-002,-1.158656924962997E-001,-4.499892592430115E-001,8.714160919189453E-001,
1.401166666666667E+009,1.933089643716812E-002,-1.081340312957764E-001,-4.268102347850800E-001,8.904724121093750E-001,1.933089643716812E-002,-1.081340312957764E-001,-4.268102347850800E-001,8.904724121093750E-001,
1.409533333333334E+009,4.380368627607822E-003,-9.221511334180832E-002,-3.960588276386261E-001,9.019533991813660E-001,4.380368627607822E-003,-9.221511334180832E-002,-3.960588276386261E-001,9.019533991813660E-001,
1.417900000000000E+009,1.597680500708520E-003,-6.855618208646774E-002,-3.838736414909363E-001,8.987252116203308E-001,1.597680500708520E-003,-6.855618208646774E-002,-3.838736414909363E-001,8.987252116203308E-001,
1.426266666666667E+009,1.134840212762356E-002,-5.305578932166100E-002,-3.500263094902039E-001,9.228907823562622E-001,1.134840212762356E-002,-5.305578932166100E-002,-3.500263094902039E-001,9.228907823562622E-001,
1.434633333333334E+009,2.862518653273583E-002,-4.301777482032776E-002,-3.156208097934723E-001,9.330840706825256E-001,2.862518653273583E-002,-4.301777482032776E-002,-3.156208097934723E-001,9.330840706825256E-001,
1.443000000000000E+009,4.647134616971016E-002,-4.613416641950607E-002,-2.987622916698456E-001,9.368287920951843E-001,4.647134616971016E-002,-4.613416641950607E-002,-2.987622916698456E-001,9.368287920951843E-001,
1.451366666666667E+009,6.006025895476341E-002,-6.007379293441773E-002,-2.658674716949463E-001,9.405075907707214E-001,6.006025895476341E-002,-6.007379293441773E-002,-2.658674716949463E-001,9.405075907707214E-001,
1.459733333333334E+009,6.496122479438782E-002,-8.385530114173889E-002,-2.491505891084671E-001,9.423392415046692E-001,6.496122479438782E-002,-8.385530114173889E-002,-2.491505891084671E-001,9.423392415046692E-001,
