% Version 1.00
%
%freq[Hz],re:Trc1_S11,im:Trc1_S11,re:Trc2_S21,im:Trc2_S21,re:Trc3_S11,im:Trc3_S11,re:Trc4_S21,im:Trc4_S21,
6.900000000000000E+008,-2.580507099628449E-002,5.065844580531120E-002,-4.937533736228943E-001,-8.528552651405335E-001,-2.580507099628449E-002,5.065844580531120E-002,-4.937533736228943E-001,-8.528552651405335E-001,
6.983666666666666E+008,-1.563509553670883E-002,5.168334394693375E-002,-5.171302556991577E-001,-8.448964953422546E-001,-1.563509553670883E-002,5.168334394693375E-002,-5.171302556991577E-001,-8.448964953422546E-001,
7.067333333333334E+008,-8.580568246543407E-003,4.678605124354363E-002,-5.622127056121826E-001,-7.829940319061279E-001,-8.580568246543407E-003,4.678605124354363E-002,-5.622127056121826E-001,-7.829940319061279E-001,
7.151000000000000E+008,-7.099801208823919E-003,3.920957818627358E-002,-5.815299153327942E-001,-7.968265414237976E-001,-7.099801208823919E-003,3.920957818627358E-002,-5.815299153327942E-001,-7.968265414237976E-001,
7.234666666666666E+008,-9.546371176838875E-003,3.391945362091065E-002,-5.930463075637817E-001,-7.850815653800964E-001,-9.546371176838875E-003,3.391945362091065E-002,-5.930463075637817E-001,-7.850815653800964E-001,
7.318333333333334E+008,-1.567147299647331E-002,3.159121423959732E-002,-6.085793972015381E-001,-7.837526202201843E-001,-1.567147299647331E-002,3.159121423959732E-002,-6.085793972015381E-001,-7.837526202201843E-001,
7.402000000000000E+008,-2.156749740242958E-002,3.192070126533508E-002,-6.530103087425232E-001,-7.666279673576355E-001,-2.156749740242958E-002,3.192070126533508E-002,-6.530103087425232E-001,-7.666279673576355E-001,
7.485666666666666E+008,-2.774218283593655E-002,3.800195455551148E-002,-6.516684293746948E-001,-7.627235054969788E-001,-2.774218283593655E-002,3.800195455551148E-002,-6.516684293746948E-001,-7.627235054969788E-001,
7.569333333333334E+008,-2.835090830922127E-002,4.584114998579025E-002,-6.595515012741089E-001,-7.411714792251587E-001,-2.835090830922127E-002,4.584114998579025E-002,-6.595515012741089E-001,-7.411714792251587E-001,
7.653000000000000E+008,-2.278272993862629E-002,5.333594605326653E-002,-6.776390671730042E-001,-7.219688892364502E-001,-2.278272993862629E-002,5.333594605326653E-002,-6.776390671730042E-001,-7.219688892364502E-001,
7.736666666666666E+008,-1.531494501978159E-002,5.955829843878746E-002,-7.107377648353577E-001,-6.958183050155640E-001,-1.531494501978159E-002,5.955829843878746E-002,-7.107377648353577E-001,-6.958183050155640E-001,
7.820333333333334E+008,-5.351118277758360E-003,6.222654506564140E-002,-7.223643660545349E-001,-6.835041642189026E-001,-5.351118277758360E-003,6.222654506564140E-002,-7.223643660545349E-001,-6.835041642189026E-001,
7.904000000000000E+008,5.681424401700497E-003,6.105055660009384E-002,-7.267842888832092E-001,-6.623954176902771E-001,5.681424401700497E-003,6.105055660009384E-002,-7.267842888832092E-001,-6.623954176902771E-001,
7.987666666666666E+008,1.119432691484690E-002,5.551525950431824E-002,-7.615135312080383E-001,-6.415730118751526E-001,1.119432691484690E-002,5.551525950431824E-002,-7.615135312080383E-001,-6.415730118751526E-001,
8.071333333333334E+008,1.497511472553015E-002,5.016349628567696E-002,-7.664068937301636E-001,-6.306744217872620E-001,1.497511472553015E-002,5.016349628567696E-002,-7.664068937301636E-001,-6.306744217872620E-001,
8.155000000000000E+008,1.003027986735106E-002,4.384015128016472E-002,-7.898212671279907E-001,-6.091873049736023E-001,1.003027986735106E-002,4.384015128016472E-002,-7.898212671279907E-001,-6.091873049736023E-001,
8.238666666666666E+008,6.956458091735840E-003,3.938056156039238E-002,-7.913174033164978E-001,-5.800958275794983E-001,6.956458091735840E-003,3.938056156039238E-002,-7.913174033164978E-001,-5.800958275794983E-001,
8.322333333333334E+008,2.671539259608835E-004,3.964515030384064E-002,-8.131603598594666E-001,-5.605130791664124E-001,2.671539259608835E-004,3.964515030384064E-002,-8.131603598594666E-001,-5.605130791664124E-001,
8.406000000000000E+008,-4.770887549966574E-003,4.330894723534584E-002,-8.244930505752564E-001,-5.477650165557861E-001,-4.770887549966574E-003,4.330894723534584E-002,-8.244930505752564E-001,-5.477650165557861E-001,
8.489666666666668E+008,-7.671938743442297E-003,5.035799369215965E-002,-8.353701233863831E-001,-5.326762795448303E-001,-7.671938743442297E-003,5.035799369215965E-002,-8.353701233863831E-001,-5.326762795448303E-001,
8.573333333333334E+008,-5.215736571699381E-003,5.788445100188255E-002,-8.530057668685913E-001,-4.916016459465027E-001,-5.215736571699381E-003,5.788445100188255E-002,-8.530057668685913E-001,-4.916016459465027E-001,
8.657000000000000E+008,4.205858800560236E-003,6.440562754869461E-002,-8.696594834327698E-001,-4.718530476093292E-001,4.205858800560236E-003,6.440562754869461E-002,-8.696594834327698E-001,-4.718530476093292E-001,
8.740666666666668E+008,1.271894108504057E-002,6.683595478534699E-002,-8.674048185348511E-001,-4.598515033721924E-001,1.271894108504057E-002,6.683595478534699E-002,-8.674048185348511E-001,-4.598515033721924E-001,
8.824333333333334E+008,2.337765321135521E-002,6.586395204067230E-002,-8.850071430206299E-001,-4.447942674160004E-001,2.337765321135521E-002,6.586395204067230E-002,-8.850071430206299E-001,-4.447942674160004E-001,
8.908000000000000E+008,3.315297886729240E-002,6.074389070272446E-002,-8.856551647186279E-001,-4.126954972743988E-001,3.315297886729240E-002,6.074389070272446E-002,-8.856551647186279E-001,-4.126954972743988E-001,
8.991666666666668E+008,3.738067671656609E-002,5.351671949028969E-002,-9.004282355308533E-001,-3.854524195194244E-001,3.738067671656609E-002,5.351671949028969E-002,-9.004282355308533E-001,-3.854524195194244E-001,
9.075333333333334E+008,3.842758759856224E-002,4.632524028420448E-002,-9.305382370948792E-001,-3.670795261859894E-001,3.842758759856224E-002,4.632524028420448E-002,-9.305382370948792E-001,-3.670795261859894E-001,
9.159000000000000E+008,3.603324294090271E-002,4.315179586410523E-002,-9.369966983795166E-001,-3.386642634868622E-001,3.603324294090271E-002,4.315179586410523E-002,-9.369966983795166E-001,-3.386642634868622E-001,
9.242666666666668E+008,3.121895156800747E-002,3.943198919296265E-002,-9.420446157455444E-001,-3.242027461528778E-001,3.121895156800747E-002,3.943198919296265E-002,-9.420446157455444E-001,-3.242027461528778E-001,
9.326333333333334E+008,2.402860671281815E-002,3.989857807755470E-002,-9.635365009307861E-001,-3.008684515953064E-001,2.402860671281815E-002,3.989857807755470E-002,-9.635365009307861E-001,-3.008684515953064E-001,
9.410000000000000E+008,2.077571302652359E-002,4.391734674572945E-002,-9.563726782798767E-001,-2.672625184059143E-001,2.077571302652359E-002,4.391734674572945E-002,-9.563726782798767E-001,-2.672625184059143E-001,
9.493666666666668E+008,2.029939182102680E-002,4.976191371679306E-002,-9.548521637916565E-001,-2.489437162876129E-001,2.029939182102680E-002,4.976191371679306E-002,-9.548521637916565E-001,-2.489437162876129E-001,
9.577333333333334E+008,2.348820120096207E-002,5.761473253369331E-002,-9.711071848869324E-001,-2.255231440067291E-001,2.348820120096207E-002,5.761473253369331E-002,-9.711071848869324E-001,-2.255231440067291E-001,
9.661000000000000E+008,3.296364098787308E-002,6.354407966136932E-002,-9.691745042800903E-001,-2.012189924716950E-001,3.296364098787308E-002,6.354407966136932E-002,-9.691745042800903E-001,-2.012189924716950E-001,
9.744666666666668E+008,4.165650904178619E-002,6.297789514064789E-002,-9.745908379554749E-001,-1.774625480175018E-001,4.165650904178619E-002,6.297789514064789E-002,-9.745908379554749E-001,-1.774625480175018E-001,
9.828333333333334E+008,5.558298155665398E-002,5.913902074098587E-002,-9.771546125411987E-001,-1.564313024282455E-001,5.558298155665398E-002,5.913902074098587E-002,-9.771546125411987E-001,-1.564313024282455E-001,
9.912000000000000E+008,6.366869062185288E-002,5.192700400948525E-002,-9.767581820487976E-001,-1.291302144527435E-001,6.366869062185288E-002,5.192700400948525E-002,-9.767581820487976E-001,-1.291302144527435E-001,
9.995666666666668E+008,7.004337757825851E-002,4.205474257469177E-002,-9.926904439926148E-001,-9.186704456806183E-002,7.004337757825851E-002,4.205474257469177E-002,-9.926904439926148E-001,-9.186704456806183E-002,
1.007933333333333E+009,7.029999792575836E-002,3.205461055040360E-002,-9.907635450363159E-001,-7.731652259826660E-002,7.029999792575836E-002,3.205461055040360E-002,-9.907635450363159E-001,-7.731652259826660E-002,
1.016300000000000E+009,6.458920985460281E-002,2.547884359955788E-002,-9.926347732543945E-001,-5.080750212073326E-002,6.458920985460281E-002,2.547884359955788E-002,-9.926347732543945E-001,-5.080750212073326E-002,
1.024666666666667E+009,5.746196210384369E-002,1.881979219615459E-002,-9.926618933677673E-001,-1.878608576953411E-002,5.746196210384369E-002,1.881979219615459E-002,-9.926618933677673E-001,-1.878608576953411E-002,
1.033033333333333E+009,5.067636445164681E-002,2.102655917406082E-002,-9.927999973297119E-001,2.003539266297594E-004,5.067636445164681E-002,2.102655917406082E-002,-9.927999973297119E-001,2.003539266297594E-004,
1.041400000000000E+009,4.478969424962997E-002,2.624874562025070E-002,-9.789372086524963E-001,3.845076262950897E-002,4.478969424962997E-002,2.624874562025070E-002,-9.789372086524963E-001,3.845076262950897E-002,
1.049766666666667E+009,4.445727169513702E-002,3.354726359248161E-002,-9.911293387413025E-001,5.805798247456551E-002,4.445727169513702E-002,3.354726359248161E-002,-9.911293387413025E-001,5.805798247456551E-002,
1.058133333333333E+009,5.028809607028961E-002,3.922440484166145E-002,-9.849619269371033E-001,7.704730331897736E-002,5.028809607028961E-002,3.922440484166145E-002,-9.849619269371033E-001,7.704730331897736E-002,
1.066500000000000E+009,6.168959662318230E-002,4.194382578134537E-002,-9.921576380729675E-001,1.158550009131432E-001,6.168959662318230E-002,4.194382578134537E-002,-9.921576380729675E-001,1.158550009131432E-001,
1.074866666666667E+009,7.234606891870499E-002,3.900158777832985E-002,-9.743068218231201E-001,1.335261017084122E-001,7.234606891870499E-002,3.900158777832985E-002,-9.743068218231201E-001,1.335261017084122E-001,
1.083233333333334E+009,8.360127359628677E-002,2.655565366148949E-002,-9.727549552917481E-001,1.544838547706604E-001,8.360127359628677E-002,2.655565366148949E-002,-9.727549552917481E-001,1.544838547706604E-001,
1.091600000000000E+009,8.988104015588760E-002,1.545359101146460E-002,-9.635632038116455E-001,1.759364604949951E-001,8.988104015588760E-002,1.545359101146460E-002,-9.635632038116455E-001,1.759364604949951E-001,
1.099966666666667E+009,9.126125276088715E-002,-1.119632088375511E-005,-9.669160842895508E-001,2.141666114330292E-001,9.126125276088715E-002,-1.119632088375511E-005,-9.669160842895508E-001,2.141666114330292E-001,
1.108333333333334E+009,8.212618529796600E-002,-1.125543192028999E-002,-9.453047513961792E-001,2.178613394498825E-001,8.212618529796600E-002,-1.125543192028999E-002,-9.453047513961792E-001,2.178613394498825E-001,
1.116700000000000E+009,6.829907745122910E-002,-1.254091691225767E-002,-9.456572532653809E-001,2.621621191501617E-001,6.829907745122910E-002,-1.254091691225767E-002,-9.456572532653809E-001,2.621621191501617E-001,
1.125066666666667E+009,5.595225095748901E-002,-1.251079235225916E-002,-9.508193135261536E-001,2.720212936401367E-001,5.595225095748901E-002,-1.251079235225916E-002,-9.508193135261536E-001,2.720212936401367E-001,
1.133433333333334E+009,4.669439792633057E-002,-1.280119759030640E-003,-9.513875246047974E-001,2.975917756557465E-001,4.669439792633057E-002,-1.280119759030640E-003,-9.513875246047974E-001,2.975917756557465E-001,
1.141800000000000E+009,4.556588083505631E-002,9.511974640190601E-003,-9.234669804573059E-001,3.186964988708496E-001,4.556588083505631E-002,9.511974640190601E-003,-9.234669804573059E-001,3.186964988708496E-001,
1.150166666666667E+009,5.199214443564415E-002,2.295771427452564E-002,-9.068116545677185E-001,3.504395484924316E-001,5.199214443564415E-002,2.295771427452564E-002,-9.068116545677185E-001,3.504395484924316E-001,
1.158533333333334E+009,6.604414433240891E-002,2.879299595952034E-002,-9.093616604804993E-001,3.748544454574585E-001,6.604414433240891E-002,2.879299595952034E-002,-9.093616604804993E-001,3.748544454574585E-001,
1.166900000000000E+009,8.513447642326355E-002,2.585661597549915E-002,-8.991280198097229E-001,4.087873101234436E-001,8.513447642326355E-002,2.585661597549915E-002,-8.991280198097229E-001,4.087873101234436E-001,
1.175266666666667E+009,9.947514533996582E-002,1.212144270539284E-002,-8.885167837142944E-001,4.136915802955627E-001,9.947514533996582E-002,1.212144270539284E-002,-8.885167837142944E-001,4.136915802955627E-001,
1.183633333333334E+009,1.101457178592682E-001,-6.020128726959229E-003,-8.764426112174988E-001,4.512174129486084E-001,1.101457178592682E-001,-6.020128726959229E-003,-8.764426112174988E-001,4.512174129486084E-001,
1.192000000000000E+009,1.102932244539261E-001,-2.828413434326649E-002,-8.666535615921021E-001,4.576941430568695E-001,1.102932244539261E-001,-2.828413434326649E-002,-8.666535615921021E-001,4.576941430568695E-001,
1.200366666666667E+009,9.884211421012878E-002,-4.496007040143013E-002,-8.579782247543335E-001,4.852072894573212E-001,9.884211421012878E-002,-4.496007040143013E-002,-8.579782247543335E-001,4.852072894573212E-001,
1.208733333333334E+009,8.290527760982513E-002,-5.550053715705872E-002,-8.524075746536255E-001,5.019450783729553E-001,8.290527760982513E-002,-5.550053715705872E-002,-8.524075746536255E-001,5.019450783729553E-001,
1.217100000000000E+009,6.418114155530930E-002,-5.307149514555931E-002,-8.377182483673096E-001,5.222230553627014E-001,6.418114155530930E-002,-5.307149514555931E-002,-8.377182483673096E-001,5.222230553627014E-001,
1.225466666666667E+009,5.222447589039803E-002,-4.550096765160561E-002,-8.137544393539429E-001,5.496522784233093E-001,5.222447589039803E-002,-4.550096765160561E-002,-8.137544393539429E-001,5.496522784233093E-001,
1.233833333333334E+009,4.510790854692459E-002,-2.968507260084152E-002,-7.978589534759522E-001,5.688701272010803E-001,4.510790854692459E-002,-2.968507260084152E-002,-7.978589534759522E-001,5.688701272010803E-001,
1.242200000000000E+009,4.841894283890724E-002,-1.419358793646097E-002,-7.838021516799927E-001,5.824990272521973E-001,4.841894283890724E-002,-1.419358793646097E-002,-7.838021516799927E-001,5.824990272521973E-001,
1.250566666666667E+009,6.270961463451386E-002,-6.235946901142597E-003,-7.567642927169800E-001,6.108345389366150E-001,6.270961463451386E-002,-6.235946901142597E-003,-7.567642927169800E-001,6.108345389366150E-001,
1.258933333333334E+009,7.959131151437759E-002,-7.786625064909458E-003,-7.659778594970703E-001,6.307996511459351E-001,7.959131151437759E-002,-7.786625064909458E-003,-7.659778594970703E-001,6.307996511459351E-001,
1.267300000000000E+009,9.569364041090012E-002,-2.156509459018707E-002,-7.441459298133850E-001,6.436592936515808E-001,9.569364041090012E-002,-2.156509459018707E-002,-7.441459298133850E-001,6.436592936515808E-001,
1.275666666666667E+009,1.045316234230995E-001,-4.203561320900917E-002,-7.105976939201355E-001,6.664776206016541E-001,1.045316234230995E-001,-4.203561320900917E-002,-7.105976939201355E-001,6.664776206016541E-001,
1.284033333333334E+009,1.020057275891304E-001,-6.596129387617111E-002,-7.033228278160095E-001,6.849386692047119E-001,1.020057275891304E-001,-6.596129387617111E-002,-7.033228278160095E-001,6.849386692047119E-001,
1.292400000000000E+009,8.923443406820297E-002,-8.571044355630875E-002,-6.916563510894775E-001,6.993028521537781E-001,8.923443406820297E-002,-8.571044355630875E-002,-6.916563510894775E-001,6.993028521537781E-001,
1.300766666666667E+009,6.955819576978684E-002,-9.491872042417526E-002,-6.688542962074280E-001,7.146527171134949E-001,6.955819576978684E-002,-9.491872042417526E-002,-6.688542962074280E-001,7.146527171134949E-001,
1.309133333333334E+009,4.659351706504822E-002,-9.423550963401794E-002,-6.580969095230103E-001,7.318362593650818E-001,4.659351706504822E-002,-9.423550963401794E-002,-6.580969095230103E-001,7.318362593650818E-001,
1.317500000000000E+009,3.247497975826263E-002,-8.338984102010727E-002,-6.344077587127686E-001,7.473826408386231E-001,3.247497975826263E-002,-8.338984102010727E-002,-6.344077587127686E-001,7.473826408386231E-001,
1.325866666666667E+009,2.547322399914265E-002,-6.473103910684586E-002,-6.192780733108521E-001,7.622035741806030E-001,2.547322399914265E-002,-6.473103910684586E-002,-6.192780733108521E-001,7.622035741806030E-001,
1.334233333333334E+009,3.065207228064537E-002,-4.847328737378120E-002,-5.915362238883972E-001,7.837787270545960E-001,3.065207228064537E-002,-4.847328737378120E-002,-5.915362238883972E-001,7.837787270545960E-001,
1.342600000000000E+009,4.283154383301735E-002,-4.103027656674385E-002,-5.721369981765747E-001,8.027355670928955E-001,4.283154383301735E-002,-4.103027656674385E-002,-5.721369981765747E-001,8.027355670928955E-001,
1.350966666666667E+009,5.928672850131989E-002,-4.415179044008255E-002,-5.410512685775757E-001,8.271863460540772E-001,5.928672850131989E-002,-4.415179044008255E-002,-5.410512685775757E-001,8.271863460540772E-001,
1.359333333333334E+009,7.348213344812393E-002,-5.747708305716515E-002,-5.295401811599731E-001,8.285222053527832E-001,7.348213344812393E-002,-5.747708305716515E-002,-5.295401811599731E-001,8.285222053527832E-001,
1.367700000000000E+009,7.346171140670776E-002,-7.980020344257355E-002,-5.111107826232910E-001,8.365657329559326E-001,7.346171140670776E-002,-7.980020344257355E-002,-5.111107826232910E-001,8.365657329559326E-001,
1.376066666666667E+009,6.644232571125031E-002,-1.001240611076355E-001,-4.954239726066589E-001,8.519073724746704E-001,6.644232571125031E-002,-1.001240611076355E-001,-4.954239726066589E-001,8.519073724746704E-001,
1.384433333333334E+009,4.728119447827339E-002,-1.183400675654411E-001,-4.710901975631714E-001,8.729861974716187E-001,4.728119447827339E-002,-1.183400675654411E-001,-4.710901975631714E-001,8.729861974716187E-001,
1.392800000000000E+009,2.358742058277130E-002,-1.224534362554550E-001,-4.576471745967865E-001,8.669359683990479E-001,2.358742058277130E-002,-1.224534362554550E-001,-4.576471745967865E-001,8.669359683990479E-001,
1.401166666666667E+009,1.682691625319421E-003,-1.147424057126045E-001,-4.350001513957977E-001,8.857854604721069E-001,1.682691625319421E-003,-1.147424057126045E-001,-4.350001513957977E-001,8.857854604721069E-001,
1.409533333333334E+009,-1.365585066378117E-002,-9.835469722747803E-002,-4.051065146923065E-001,8.977011442184448E-001,-1.365585066378117E-002,-9.835469722747803E-002,-4.051065146923065E-001,8.977011442184448E-001,
1.417900000000000E+009,-1.716249436140060E-002,-7.434161752462387E-002,-3.925728201866150E-001,8.931340575218201E-001,-1.716249436140060E-002,-7.434161752462387E-002,-3.925728201866150E-001,8.931340575218201E-001,
1.426266666666667E+009,-7.819616235792637E-003,-5.782018229365349E-002,-3.600282371044159E-001,9.195512533187866E-001,-7.819616235792637E-003,-5.782018229365349E-002,-3.600282371044159E-001,9.195512533187866E-001,
1.434633333333334E+009,9.171025827527046E-003,-4.730376973748207E-002,-3.262269198894501E-001,9.297345280647278E-001,9.171025827527046E-003,-4.730376973748207E-002,-3.262269198894501E-001,9.297345280647278E-001,
1.443000000000000E+009,2.702857740223408E-002,-4.946964979171753E-002,-3.087782263755798E-001,9.345633983612061E-001,2.702857740223408E-002,-4.946964979171753E-002,-3.087782263755798E-001,9.345633983612061E-001,
1.451366666666667E+009,4.074364900588989E-002,-6.259482353925705E-002,-2.762439250946045E-001,9.376443624496460E-001,4.074364900588989E-002,-6.259482353925705E-002,-2.762439250946045E-001,9.376443624496460E-001,
1.459733333333334E+009,4.546115919947624E-002,-8.578438311815262E-002,-2.590017914772034E-001,9.402544498443604E-001,4.546115919947624E-002,-8.578438311815262E-002,-2.590017914772034E-001,9.402544498443604E-001,
