% Version 1.00
%
%freq[Hz],re:Trc1_S11,im:Trc1_S11,re:Trc2_S21,im:Trc2_S21,re:Trc3_S11,im:Trc3_S11,re:Trc4_S21,im:Trc4_S21,
6.900000000000000E+008,-2.976526506245136E-002,5.859987810254097E-002,-5.042595267295837E-001,-8.463973999023438E-001,-2.976526506245136E-002,5.859987810254097E-002,-5.042595267295837E-001,-8.463973999023438E-001,
6.983666666666666E+008,-1.967382244765759E-002,5.943841114640236E-002,-5.235468149185181E-001,-8.384868502616882E-001,-1.967382244765759E-002,5.943841114640236E-002,-5.235468149185181E-001,-8.384868502616882E-001,
7.067333333333334E+008,-1.266782917082310E-002,5.465335771441460E-002,-5.683034658432007E-001,-7.768207788467407E-001,-1.266782917082310E-002,5.465335771441460E-002,-5.683034658432007E-001,-7.768207788467407E-001,
7.151000000000000E+008,-1.111152954399586E-002,4.731211438775063E-002,-5.891989469528198E-001,-7.905304431915283E-001,-1.111152954399586E-002,4.731211438775063E-002,-5.891989469528198E-001,-7.905304431915283E-001,
7.234666666666666E+008,-1.340709347277880E-002,4.227971285581589E-002,-6.005802750587463E-001,-7.783818244934082E-001,-1.340709347277880E-002,4.227971285581589E-002,-6.005802750587463E-001,-7.783818244934082E-001,
7.318333333333334E+008,-1.941516064107418E-002,4.043729230761528E-002,-6.165275573730469E-001,-7.760548591613770E-001,-1.941516064107418E-002,4.043729230761528E-002,-6.165275573730469E-001,-7.760548591613770E-001,
7.402000000000000E+008,-2.521301433444023E-002,4.099920764565468E-002,-6.610511541366577E-001,-7.575098872184753E-001,-2.521301433444023E-002,4.099920764565468E-002,-6.610511541366577E-001,-7.575098872184753E-001,
7.485666666666666E+008,-3.102911263704300E-002,4.755504429340363E-002,-6.597162485122681E-001,-7.531207203865051E-001,-3.102911263704300E-002,4.755504429340363E-002,-6.597162485122681E-001,-7.531207203865051E-001,
7.569333333333334E+008,-3.129088133573532E-002,5.568219348788261E-002,-6.676255464553833E-001,-7.318483591079712E-001,-3.129088133573532E-002,5.568219348788261E-002,-6.676255464553833E-001,-7.318483591079712E-001,
7.653000000000000E+008,-2.523062191903591E-002,6.348086893558502E-002,-6.845651268959045E-001,-7.138696312904358E-001,-2.523062191903591E-002,6.348086893558502E-002,-6.845651268959045E-001,-7.138696312904358E-001,
7.736666666666666E+008,-1.770477369427681E-002,6.968386471271515E-002,-7.178972363471985E-001,-6.869623064994812E-001,-1.770477369427681E-002,6.968386471271515E-002,-7.178972363471985E-001,-6.869623064994812E-001,
7.820333333333334E+008,-7.168006617575884E-003,7.222902774810791E-002,-7.281151413917542E-001,-6.723074316978455E-001,-7.168006617575884E-003,7.222902774810791E-002,-7.281151413917542E-001,-6.723074316978455E-001,
7.904000000000000E+008,4.051548894494772E-003,7.101645320653915E-002,-7.324671149253845E-001,-6.514012813568115E-001,4.051548894494772E-003,7.101645320653915E-002,-7.324671149253845E-001,-6.514012813568115E-001,
7.987666666666666E+008,9.356773458421230E-003,6.532029062509537E-002,-7.645264267921448E-001,-6.303320527076721E-001,9.356773458421230E-003,6.532029062509537E-002,-7.645264267921448E-001,-6.303320527076721E-001,
8.071333333333334E+008,1.320044603198767E-002,6.040876731276512E-002,-7.726437449455261E-001,-6.222540140151978E-001,1.320044603198767E-002,6.040876731276512E-002,-7.726437449455261E-001,-6.222540140151978E-001,
8.155000000000000E+008,8.585691452026367E-003,5.429689213633537E-002,-7.956640124320984E-001,-5.997222065925598E-001,8.585691452026367E-003,5.429689213633537E-002,-7.956640124320984E-001,-5.997222065925598E-001,
8.238666666666666E+008,5.718937143683434E-003,5.003978312015533E-002,-7.948930859565735E-001,-5.697626471519470E-001,5.718937143683434E-003,5.003978312015533E-002,-7.948930859565735E-001,-5.697626471519470E-001,
8.322333333333334E+008,-5.742834182456136E-004,5.062032863497734E-002,-8.172821402549744E-001,-5.504409670829773E-001,-5.742834182456136E-004,5.062032863497734E-002,-8.172821402549744E-001,-5.504409670829773E-001,
8.406000000000000E+008,-4.938565660268068E-003,5.463113635778427E-002,-8.282040357589722E-001,-5.362044572830200E-001,-4.938565660268068E-003,5.463113635778427E-002,-8.282040357589722E-001,-5.362044572830200E-001,
8.489666666666668E+008,-7.588042411953211E-003,6.214067339897156E-002,-8.395597338676453E-001,-5.205535888671875E-001,-7.588042411953211E-003,6.214067339897156E-002,-8.395597338676453E-001,-5.205535888671875E-001,
8.573333333333334E+008,-4.878480453044176E-003,6.965252757072449E-002,-8.577411770820618E-001,-4.800468087196350E-001,-4.878480453044176E-003,6.965252757072449E-002,-8.577411770820618E-001,-4.800468087196350E-001,
8.657000000000000E+008,5.131352692842484E-003,7.645118981599808E-002,-8.729217052459717E-001,-4.606711268424988E-001,5.131352692842484E-003,7.645118981599808E-002,-8.729217052459717E-001,-4.606711268424988E-001,
8.740666666666668E+008,1.396723929792643E-002,7.850060611963272E-002,-8.723310828208923E-001,-4.472236931324005E-001,1.396723929792643E-002,7.850060611963272E-002,-8.723310828208923E-001,-4.472236931324005E-001,
8.824333333333334E+008,2.476703934371471E-002,7.763543725013733E-002,-8.891605734825134E-001,-4.330337047576904E-001,2.476703934371471E-002,7.763543725013733E-002,-8.891605734825134E-001,-4.330337047576904E-001,
8.908000000000000E+008,3.468382358551025E-002,7.224555313587189E-002,-8.879755735397339E-001,-4.014704823493958E-001,3.468382358551025E-002,7.224555313587189E-002,-8.879755735397339E-001,-4.014704823493958E-001,
8.991666666666668E+008,3.897233679890633E-002,6.509787589311600E-002,-9.033308625221252E-001,-3.739811480045319E-001,3.897233679890633E-002,6.509787589311600E-002,-9.033308625221252E-001,-3.739811480045319E-001,
9.075333333333334E+008,4.031567275524139E-002,5.813798308372498E-002,-9.341619610786438E-001,-3.547536730766296E-001,4.031567275524139E-002,5.813798308372498E-002,-9.341619610786438E-001,-3.547536730766296E-001,
9.159000000000000E+008,3.846826776862145E-002,5.530126392841339E-002,-9.393386244773865E-001,-3.255350589752197E-001,3.846826776862145E-002,5.530126392841339E-002,-9.393386244773865E-001,-3.255350589752197E-001,
9.242666666666668E+008,3.397802263498306E-002,5.143348872661591E-002,-9.440671801567078E-001,-3.102985024452210E-001,3.397802263498306E-002,5.143348872661591E-002,-9.440671801567078E-001,-3.102985024452210E-001,
9.326333333333334E+008,2.738182060420513E-002,5.238347500562668E-002,-9.647381901741028E-001,-2.853389978408814E-001,2.738182060420513E-002,5.238347500562668E-002,-9.647381901741028E-001,-2.853389978408814E-001,
9.410000000000000E+008,2.454065345227718E-002,5.641372501850128E-002,-9.576174616813660E-001,-2.533872127532959E-001,2.454065345227718E-002,5.641372501850128E-002,-9.576174616813660E-001,-2.533872127532959E-001,
9.493666666666668E+008,2.457852475345135E-002,6.233933195471764E-002,-9.568866491317749E-001,-2.363973557949066E-001,2.457852475345135E-002,6.233933195471764E-002,-9.568866491317749E-001,-2.363973557949066E-001,
9.577333333333334E+008,2.832529693841934E-002,7.023187726736069E-002,-9.728786945343018E-001,-2.101241052150726E-001,2.832529693841934E-002,7.023187726736069E-002,-9.728786945343018E-001,-2.101241052150726E-001,
9.661000000000000E+008,3.824755549430847E-002,7.629602402448654E-002,-9.706715941429138E-001,-1.880871802568436E-001,3.824755549430847E-002,7.629602402448654E-002,-9.706715941429138E-001,-1.880871802568436E-001,
9.744666666666668E+008,4.691951721906662E-002,7.506905496120453E-002,-9.744004607200623E-001,-1.628164052963257E-001,4.691951721906662E-002,7.506905496120453E-002,-9.744004607200623E-001,-1.628164052963257E-001,
9.828333333333334E+008,6.124757975339890E-002,7.090917974710465E-002,-9.769989848136902E-001,-1.426764130592346E-001,6.124757975339890E-002,7.090917974710465E-002,-9.769989848136902E-001,-1.426764130592346E-001,
9.912000000000000E+008,6.942351162433624E-002,6.416471302509308E-002,-9.767385721206665E-001,-1.151929274201393E-001,6.942351162433624E-002,6.416471302509308E-002,-9.767385721206665E-001,-1.151929274201393E-001,
9.995666666666668E+008,7.610429823398590E-002,5.378090590238571E-002,-9.931574463844299E-001,-7.760663330554962E-002,7.610429823398590E-002,5.378090590238571E-002,-9.931574463844299E-001,-7.760663330554962E-002,
1.007933333333333E+009,7.667747139930725E-002,4.422749951481819E-002,-9.914777278900147E-001,-6.490671634674072E-002,7.667747139930725E-002,4.422749951481819E-002,-9.914777278900147E-001,-6.490671634674072E-002,
1.016300000000000E+009,7.141404598951340E-002,3.740184009075165E-002,-9.943145513534546E-001,-3.894025087356567E-002,7.141404598951340E-002,3.740184009075165E-002,-9.943145513534546E-001,-3.894025087356567E-002,
1.024666666666667E+009,6.453934311866760E-002,3.080674260854721E-002,-9.935218691825867E-001,-4.913121927529573E-003,6.453934311866760E-002,3.080674260854721E-002,-9.935218691825867E-001,-4.913121927529573E-003,
1.033033333333333E+009,5.830295011401177E-002,3.303321450948715E-002,-9.930132031440735E-001,1.444111391901970E-002,5.830295011401177E-002,3.303321450948715E-002,-9.930132031440735E-001,1.444111391901970E-002,
1.041400000000000E+009,5.284448340535164E-002,3.821973130106926E-002,-9.809762835502625E-001,5.214826017618179E-002,5.284448340535164E-002,3.821973130106926E-002,-9.809762835502625E-001,5.214826017618179E-002,
1.049766666666667E+009,5.341263115406036E-002,4.551607742905617E-002,-9.904065132141113E-001,7.209193706512451E-002,5.341263115406036E-002,4.551607742905617E-002,-9.904065132141113E-001,7.209193706512451E-002,
1.058133333333333E+009,5.979785323143005E-002,5.095060542225838E-002,-9.839760661125183E-001,9.137421101331711E-002,5.979785323143005E-002,5.095060542225838E-002,-9.839760661125183E-001,9.137421101331711E-002,
1.066500000000000E+009,7.139682769775391E-002,5.342312157154083E-002,-9.900056123733521E-001,1.290700882673264E-001,7.139682769775391E-002,5.342312157154083E-002,-9.900056123733521E-001,1.290700882673264E-001,
1.074866666666667E+009,8.233295381069183E-002,5.044035241007805E-002,-9.724357128143311E-001,1.473224312067032E-001,8.233295381069183E-002,5.044035241007805E-002,-9.724357128143311E-001,1.473224312067032E-001,
1.083233333333334E+009,9.370167553424835E-002,3.757276013493538E-002,-9.695650339126587E-001,1.693422347307205E-001,9.370167553424835E-002,3.757276013493538E-002,-9.695650339126587E-001,1.693422347307205E-001,
1.091600000000000E+009,1.000543460249901E-001,2.658284269273281E-002,-9.608662724494934E-001,1.894716471433640E-001,1.000543460249901E-001,2.658284269273281E-002,-9.608662724494934E-001,1.894716471433640E-001,
1.099966666666667E+009,1.021210849285126E-001,1.107638515532017E-002,-9.643636345863342E-001,2.288429439067841E-001,1.021210849285126E-001,1.107638515532017E-002,-9.643636345863342E-001,2.288429439067841E-001,
1.108333333333334E+009,9.294828027486801E-002,-7.515250763390213E-005,-9.440541863441467E-001,2.306717932224274E-001,9.294828027486801E-002,-7.515250763390213E-005,-9.440541863441467E-001,2.306717932224274E-001,
1.116700000000000E+009,7.948180288076401E-002,-2.088037552312017E-003,-9.418612718582153E-001,2.762479782104492E-001,7.948180288076401E-002,-2.088037552312017E-003,-9.418612718582153E-001,2.762479782104492E-001,
1.125066666666667E+009,6.768284738063812E-002,-2.029607538133860E-003,-9.466193914413452E-001,2.868637740612030E-001,6.768284738063812E-002,-2.029607538133860E-003,-9.466193914413452E-001,2.868637740612030E-001,
1.133433333333334E+009,5.911868438124657E-002,9.204595349729061E-003,-9.479740858078003E-001,3.124473989009857E-001,5.911868438124657E-002,9.204595349729061E-003,-9.479740858078003E-001,3.124473989009857E-001,
1.141800000000000E+009,5.869685113430023E-002,1.943568885326386E-002,-9.195331931114197E-001,3.324707150459290E-001,5.869685113430023E-002,1.943568885326386E-002,-9.195331931114197E-001,3.324707150459290E-001,
1.150166666666667E+009,6.607546657323837E-002,3.262276202440262E-002,-9.005810618400574E-001,3.645869195461273E-001,6.607546657323837E-002,3.262276202440262E-002,-9.005810618400574E-001,3.645869195461273E-001,
1.158533333333334E+009,8.031239360570908E-002,3.796240314841270E-002,-9.030582308769226E-001,3.889980614185333E-001,8.031239360570908E-002,3.796240314841270E-002,-9.030582308769226E-001,3.889980614185333E-001,
1.166900000000000E+009,9.981612116098404E-002,3.464538976550102E-002,-8.932380080223084E-001,4.228295981884003E-001,9.981612116098404E-002,3.464538976550102E-002,-8.932380080223084E-001,4.228295981884003E-001,
1.175266666666667E+009,1.141626760363579E-001,2.019819431006908E-002,-8.815795779228210E-001,4.269990622997284E-001,1.141626760363579E-001,2.019819431006908E-002,-8.815795779228210E-001,4.269990622997284E-001,
1.183633333333334E+009,1.249155774712563E-001,1.858905539847910E-003,-8.686756491661072E-001,4.651744067668915E-001,1.249155774712563E-001,1.858905539847910E-003,-8.686756491661072E-001,4.651744067668915E-001,
1.192000000000000E+009,1.249284595251083E-001,-2.057934366166592E-002,-8.597196340560913E-001,4.715192615985870E-001,1.249284595251083E-001,-2.057934366166592E-002,-8.597196340560913E-001,4.715192615985870E-001,
1.200366666666667E+009,1.136673986911774E-001,-3.715661913156509E-002,-8.505826592445374E-001,4.984887242317200E-001,1.136673986911774E-001,-3.715661913156509E-002,-8.505826592445374E-001,4.984887242317200E-001,
1.208733333333334E+009,9.792030602693558E-002,-4.773211106657982E-002,-8.472729921340942E-001,5.153229832649231E-001,9.792030602693558E-002,-4.773211106657982E-002,-8.472729921340942E-001,5.153229832649231E-001,
1.217100000000000E+009,7.973293215036392E-002,-4.575031995773315E-002,-8.310590386390686E-001,5.372541546821594E-001,7.973293215036392E-002,-4.575031995773315E-002,-8.310590386390686E-001,5.372541546821594E-001,
1.225466666666667E+009,6.842862069606781E-002,-3.859129920601845E-002,-8.064705133438110E-001,5.624784231185913E-001,6.842862069606781E-002,-3.859129920601845E-002,-8.064705133438110E-001,5.624784231185913E-001,
1.233833333333334E+009,6.182969361543655E-002,-2.323940768837929E-002,-7.891092896461487E-001,5.824170112609863E-001,6.182969361543655E-002,-2.323940768837929E-002,-7.891092896461487E-001,5.824170112609863E-001,
1.242200000000000E+009,6.574700027704239E-002,-8.209133520722389E-003,-7.743985056877136E-001,5.966635346412659E-001,6.574700027704239E-002,-8.209133520722389E-003,-7.743985056877136E-001,5.966635346412659E-001,
1.250566666666667E+009,8.055306971073151E-002,-8.944477885961533E-004,-7.454949617385864E-001,6.238175630569458E-001,8.055306971073151E-002,-8.944477885961533E-004,-7.454949617385864E-001,6.238175630569458E-001,
1.258933333333334E+009,9.798777103424072E-002,-3.783430671319366E-003,-7.567799687385559E-001,6.437460780143738E-001,9.798777103424072E-002,-3.783430671319366E-003,-7.567799687385559E-001,6.437460780143738E-001,
1.267300000000000E+009,1.140420660376549E-001,-1.786176301538944E-002,-7.332022190093994E-001,6.562930345535278E-001,1.140420660376549E-001,-1.786176301538944E-002,-7.332022190093994E-001,6.562930345535278E-001,
1.275666666666667E+009,1.225801035761833E-001,-3.846112266182900E-002,-7.006195783615112E-001,6.776344180107117E-001,1.225801035761833E-001,-3.846112266182900E-002,-7.006195783615112E-001,6.776344180107117E-001,
1.284033333333334E+009,1.201854124665260E-001,-6.269663572311401E-002,-6.918121576309204E-001,6.958751678466797E-001,1.201854124665260E-001,-6.269663572311401E-002,-6.918121576309204E-001,6.958751678466797E-001,
1.292400000000000E+009,1.073476672172546E-001,-8.271816372871399E-002,-6.795827746391296E-001,7.107353806495667E-001,1.073476672172546E-001,-8.271816372871399E-002,-6.795827746391296E-001,7.107353806495667E-001,
1.300766666666667E+009,8.769243955612183E-002,-9.200713038444519E-002,-6.574814319610596E-001,7.268598675727844E-001,8.769243955612183E-002,-9.200713038444519E-002,-6.574814319610596E-001,7.268598675727844E-001,
1.309133333333334E+009,6.492710113525391E-002,-9.169425070285797E-002,-6.468170285224915E-001,7.428255081176758E-001,6.492710113525391E-002,-9.169425070285797E-002,-6.468170285224915E-001,7.428255081176758E-001,
1.317500000000000E+009,5.150329694151878E-002,-8.118532598018646E-002,-6.229220032691956E-001,7.588866353034973E-001,5.150329694151878E-002,-8.118532598018646E-002,-6.229220032691956E-001,7.588866353034973E-001,
1.325866666666667E+009,4.486250877380371E-002,-6.339854001998901E-002,-6.064933538436890E-001,7.737960219383240E-001,4.486250877380371E-002,-6.339854001998901E-002,-6.064933538436890E-001,7.737960219383240E-001,
1.334233333333334E+009,5.051549896597862E-002,-4.798519238829613E-002,-5.775350332260132E-001,7.955856323242188E-001,5.051549896597862E-002,-4.798519238829613E-002,-5.775350332260132E-001,7.955856323242188E-001,
1.342600000000000E+009,6.301636248826981E-002,-4.126602783799171E-002,-5.589644312858582E-001,8.133420348167419E-001,6.301636248826981E-002,-4.126602783799171E-002,-5.589644312858582E-001,8.133420348167419E-001,
1.350966666666667E+009,7.964976876974106E-002,-4.535261914134026E-002,-5.267875790596008E-001,8.360888361930847E-001,7.964976876974106E-002,-4.535261914134026E-002,-5.267875790596008E-001,8.360888361930847E-001,
1.359333333333334E+009,9.346081316471100E-002,-5.922311544418335E-002,-5.138503909111023E-001,8.397575020790100E-001,9.346081316471100E-002,-5.922311544418335E-002,-5.138503909111023E-001,8.397575020790100E-001,
1.367700000000000E+009,9.347562491893768E-002,-8.193069696426392E-002,-4.962671101093292E-001,8.457313179969788E-001,9.347562491893768E-002,-8.193069696426392E-002,-4.962671101093292E-001,8.457313179969788E-001,
1.376066666666667E+009,8.630112558603287E-002,-1.021200343966484E-001,-4.809644818305969E-001,8.601575493812561E-001,8.630112558603287E-002,-1.021200343966484E-001,-4.809644818305969E-001,8.601575493812561E-001,
1.384433333333334E+009,6.728418916463852E-002,-1.206785887479782E-001,-4.569662213325501E-001,8.811181187629700E-001,6.728418916463852E-002,-1.206785887479782E-001,-4.569662213325501E-001,8.811181187629700E-001,
1.392800000000000E+009,4.385618492960930E-002,-1.250539422035217E-001,-4.431252181529999E-001,8.762452006340027E-001,4.385618492960930E-002,-1.250539422035217E-001,-4.431252181529999E-001,8.762452006340027E-001,
1.401166666666667E+009,2.240276709198952E-002,-1.177085116505623E-001,-4.198342859745026E-001,8.946014642715454E-001,2.240276709198952E-002,-1.177085116505623E-001,-4.198342859745026E-001,8.946014642715454E-001,
1.409533333333334E+009,6.948268041014671E-003,-1.019724532961845E-001,-3.898151218891144E-001,9.064466953277588E-001,6.948268041014671E-003,-1.019724532961845E-001,-3.898151218891144E-001,9.064466953277588E-001,
1.417900000000000E+009,3.837717697024345E-003,-7.889741659164429E-002,-3.758545219898224E-001,9.022883772850037E-001,3.837717697024345E-003,-7.889741659164429E-002,-3.758545219898224E-001,9.022883772850037E-001,
1.426266666666667E+009,1.351984031498432E-002,-6.362258642911911E-002,-3.436191082000732E-001,9.278391599655151E-001,1.351984031498432E-002,-6.362258642911911E-002,-3.436191082000732E-001,9.278391599655151E-001,
1.434633333333334E+009,3.074526041746140E-002,-5.421091988682747E-002,-3.087081313133240E-001,9.374310970306397E-001,3.074526041746140E-002,-5.421091988682747E-002,-3.087081313133240E-001,9.374310970306397E-001,
1.443000000000000E+009,4.854476824402809E-002,-5.808414891362190E-002,-2.907374501228333E-001,9.424142837524414E-001,4.854476824402809E-002,-5.808414891362190E-002,-2.907374501228333E-001,9.424142837524414E-001,
1.451366666666667E+009,6.162619963288307E-002,-7.158125191926956E-002,-2.583430111408234E-001,9.440985321998596E-001,6.162619963288307E-002,-7.158125191926956E-002,-2.583430111408234E-001,9.440985321998596E-001,
1.459733333333334E+009,6.591448187828064E-002,-9.535772353410721E-002,-2.402413487434387E-001,9.453746080398560E-001,6.591448187828064E-002,-9.535772353410721E-002,-2.402413487434387E-001,9.453746080398560E-001,
