% Version 1.00
%
%freq[Hz],re:Trc1_S11,im:Trc1_S11,re:Trc2_S21,im:Trc2_S21,re:Trc3_S11,im:Trc3_S11,re:Trc4_S21,im:Trc4_S21,
6.900000000000000E+008,-5.763724073767662E-002,1.555137988179922E-002,-5.006858110427856E-001,-8.483794331550598E-001,-5.763724073767662E-002,1.555137988179922E-002,-5.006858110427856E-001,-8.483794331550598E-001,
6.983666666666666E+008,-4.885840043425560E-002,1.606691256165505E-002,-5.241055488586426E-001,-8.391602039337158E-001,-4.885840043425560E-002,1.606691256165505E-002,-5.241055488586426E-001,-8.391602039337158E-001,
7.067333333333334E+008,-4.316080734133720E-002,1.072282344102860E-002,-5.691841244697571E-001,-7.771810293197632E-001,-4.316080734133720E-002,1.072282344102860E-002,-5.691841244697571E-001,-7.771810293197632E-001,
7.151000000000000E+008,-4.391542822122574E-002,3.493733704090118E-003,-5.884102582931519E-001,-7.900607585906982E-001,-4.391542822122574E-002,3.493733704090118E-003,-5.884102582931519E-001,-7.900607585906982E-001,
7.234666666666666E+008,-4.823020100593567E-002,-1.386662828736007E-003,-6.004278063774109E-001,-7.778849005699158E-001,-4.823020100593567E-002,-1.386662828736007E-003,-6.004278063774109E-001,-7.778849005699158E-001,
7.318333333333334E+008,-5.645132437348366E-002,-3.180826315656304E-003,-6.152581572532654E-001,-7.757027149200440E-001,-5.645132437348366E-002,-3.180826315656304E-003,-6.152581572532654E-001,-7.757027149200440E-001,
7.402000000000000E+008,-6.362389028072357E-002,-2.277750056236982E-003,-6.595334410667419E-001,-7.584691047668457E-001,-6.362389028072357E-002,-2.277750056236982E-003,-6.595334410667419E-001,-7.584691047668457E-001,
7.485666666666666E+008,-7.167420536279678E-002,4.555215127766132E-003,-6.582468748092651E-001,-7.543436288833618E-001,-7.167420536279678E-002,4.555215127766132E-003,-6.582468748092651E-001,-7.543436288833618E-001,
7.569333333333334E+008,-7.378781586885452E-002,1.295859832316637E-002,-6.644190549850464E-001,-7.333933115005493E-001,-7.378781586885452E-002,1.295859832316637E-002,-6.644190549850464E-001,-7.333933115005493E-001,
7.653000000000000E+008,-6.988799571990967E-002,2.118641324341297E-002,-6.836563944816589E-001,-7.139068841934204E-001,-6.988799571990967E-002,2.118641324341297E-002,-6.836563944816589E-001,-7.139068841934204E-001,
7.736666666666666E+008,-6.338328123092651E-002,2.723878622055054E-002,-7.162271738052368E-001,-6.880333423614502E-001,-6.338328123092651E-002,2.723878622055054E-002,-7.162271738052368E-001,-6.880333423614502E-001,
7.820333333333334E+008,-5.534003302454948E-002,3.034080192446709E-002,-7.282090187072754E-001,-6.758593320846558E-001,-5.534003302454948E-002,3.034080192446709E-002,-7.282090187072754E-001,-6.758593320846558E-001,
7.904000000000000E+008,-4.619716107845306E-002,2.957421168684959E-002,-7.324482202529907E-001,-6.544377803802490E-001,-4.619716107845306E-002,2.957421168684959E-002,-7.324482202529907E-001,-6.544377803802490E-001,
7.987666666666666E+008,-4.241259768605232E-002,2.431513927876949E-002,-7.671522498130798E-001,-6.325048804283142E-001,-4.241259768605232E-002,2.431513927876949E-002,-7.671522498130798E-001,-6.325048804283142E-001,
8.071333333333334E+008,-4.065869003534317E-002,1.986449956893921E-002,-7.728518247604370E-001,-6.210774779319763E-001,-4.065869003534317E-002,1.986449956893921E-002,-7.728518247604370E-001,-6.210774779319763E-001,
8.155000000000000E+008,-4.767409712076187E-002,1.388230174779892E-002,-7.957365512847900E-001,-5.987207889556885E-001,-4.767409712076187E-002,1.388230174779892E-002,-7.957365512847900E-001,-5.987207889556885E-001,
8.238666666666666E+008,-5.260842293500900E-002,1.138558704406023E-002,-7.962563633918762E-001,-5.696286559104919E-001,-5.260842293500900E-002,1.138558704406023E-002,-7.962563633918762E-001,-5.696286559104919E-001,
8.322333333333334E+008,-6.094265729188919E-002,1.274326536804438E-002,-8.177825212478638E-001,-5.500724315643311E-001,-6.094265729188919E-002,1.274326536804438E-002,-8.177825212478638E-001,-5.500724315643311E-001,
8.406000000000000E+008,-6.738109886646271E-002,1.828562654554844E-002,-8.285114169120789E-001,-5.372022986412048E-001,-6.738109886646271E-002,1.828562654554844E-002,-8.285114169120789E-001,-5.372022986412048E-001,
8.489666666666668E+008,-7.211548835039139E-002,2.567004784941673E-002,-8.383629918098450E-001,-5.224620699882507E-001,-7.211548835039139E-002,2.567004784941673E-002,-8.383629918098450E-001,-5.224620699882507E-001,
8.573333333333334E+008,-7.024731487035751E-002,3.397075086832047E-002,-8.553032875061035E-001,-4.818694889545441E-001,-7.024731487035751E-002,3.397075086832047E-002,-8.553032875061035E-001,-4.818694889545441E-001,
8.657000000000000E+008,-6.369298696517944E-002,4.250270500779152E-002,-8.725360035896301E-001,-4.621702134609222E-001,-6.369298696517944E-002,4.250270500779152E-002,-8.725360035896301E-001,-4.621702134609222E-001,
8.740666666666668E+008,-5.620284378528595E-002,4.572884365916252E-002,-8.710955977439880E-001,-4.500724077224731E-001,-5.620284378528595E-002,4.572884365916252E-002,-8.710955977439880E-001,-4.500724077224731E-001,
8.824333333333334E+008,-4.701389372348785E-002,4.555653035640717E-002,-8.884269595146179E-001,-4.355960786342621E-001,-4.701389372348785E-002,4.555653035640717E-002,-8.884269595146179E-001,-4.355960786342621E-001,
8.908000000000000E+008,-3.904619440436363E-002,4.179105907678604E-002,-8.896523118019104E-001,-4.035264849662781E-001,-3.904619440436363E-002,4.179105907678604E-002,-8.896523118019104E-001,-4.035264849662781E-001,
8.991666666666668E+008,-3.624010086059570E-002,3.565425425767899E-002,-9.042491912841797E-001,-3.757730126380920E-001,-3.624010086059570E-002,3.565425425767899E-002,-9.042491912841797E-001,-3.757730126380920E-001,
9.075333333333334E+008,-3.814027830958366E-002,3.032278642058373E-002,-9.343313574790955E-001,-3.561905026435852E-001,-3.814027830958366E-002,3.032278642058373E-002,-9.343313574790955E-001,-3.561905026435852E-001,
9.159000000000000E+008,-4.237119480967522E-002,2.951370365917683E-002,-9.390916228294373E-001,-3.276500105857849E-001,-4.237119480967522E-002,2.951370365917683E-002,-9.390916228294373E-001,-3.276500105857849E-001,
9.242666666666668E+008,-4.848025739192963E-002,2.809592895209789E-002,-9.442371129989624E-001,-3.116008043289185E-001,-4.848025739192963E-002,2.809592895209789E-002,-9.442371129989624E-001,-3.116008043289185E-001,
9.326333333333334E+008,-5.694714933633804E-002,3.034324571490288E-002,-9.650978446006775E-001,-2.888883054256439E-001,-5.694714933633804E-002,3.034324571490288E-002,-9.650978446006775E-001,-2.888883054256439E-001,
9.410000000000000E+008,-6.113595515489578E-002,3.627455979585648E-002,-9.571086764335632E-001,-2.556339204311371E-001,-6.113595515489578E-002,3.627455979585648E-002,-9.571086764335632E-001,-2.556339204311371E-001,
9.493666666666668E+008,-6.294717639684677E-002,4.424237087368965E-002,-9.558121562004089E-001,-2.381073832511902E-001,-6.294717639684677E-002,4.424237087368965E-002,-9.558121562004089E-001,-2.381073832511902E-001,
9.577333333333334E+008,-6.057903915643692E-002,5.338267609477043E-002,-9.703962206840515E-001,-2.154561281204224E-001,-6.057903915643692E-002,5.338267609477043E-002,-9.703962206840515E-001,-2.154561281204224E-001,
9.661000000000000E+008,-5.337962880730629E-002,6.179956346750259E-002,-9.692767262458801E-001,-1.911123842000961E-001,-5.337962880730629E-002,6.179956346750259E-002,-9.692767262458801E-001,-1.911123842000961E-001,
9.744666666666668E+008,-4.464755207300186E-002,6.279238313436508E-002,-9.748913049697876E-001,-1.666568517684937E-001,-4.464755207300186E-002,6.279238313436508E-002,-9.748913049697876E-001,-1.666568517684937E-001,
9.828333333333334E+008,-3.226251527667046E-002,6.072051078081131E-002,-9.781478643417358E-001,-1.468008160591126E-001,-3.226251527667046E-002,6.072051078081131E-002,-9.781478643417358E-001,-1.468008160591126E-001,
9.912000000000000E+008,-2.611978352069855E-002,5.517347157001495E-002,-9.783735275268555E-001,-1.186211109161377E-001,-2.611978352069855E-002,5.517347157001495E-002,-9.783735275268555E-001,-1.186211109161377E-001,
9.995666666666668E+008,-2.033336833119392E-002,4.817931354045868E-002,-9.947692155838013E-001,-8.065715432167053E-002,-2.033336833119392E-002,4.817931354045868E-002,-9.947692155838013E-001,-8.065715432167053E-002,
1.007933333333333E+009,-2.190918661653996E-002,4.052183032035828E-002,-9.916644692420960E-001,-6.599005311727524E-002,-2.190918661653996E-002,4.052183032035828E-002,-9.916644692420960E-001,-6.599005311727524E-002,
1.016300000000000E+009,-2.867547422647476E-002,3.679848089814186E-002,-9.928707480430603E-001,-3.785857185721397E-002,-2.867547422647476E-002,3.679848089814186E-002,-9.928707480430603E-001,-3.785857185721397E-002,
1.024666666666667E+009,-3.697466850280762E-002,3.278458863496780E-002,-9.933716058731079E-001,-4.906397312879562E-003,-3.697466850280762E-002,3.278458863496780E-002,-9.933716058731079E-001,-4.906397312879562E-003,
1.033033333333333E+009,-4.402156174182892E-002,3.779081627726555E-002,-9.916690587997437E-001,1.360580790787935E-002,-4.402156174182892E-002,3.779081627726555E-002,-9.916690587997437E-001,1.360580790787935E-002,
1.041400000000000E+009,-5.013731867074966E-002,4.548097774386406E-002,-9.761100411415100E-001,5.124328285455704E-002,-5.013731867074966E-002,4.548097774386406E-002,-9.761100411415100E-001,5.124328285455704E-002,
1.049766666666667E+009,-5.102333799004555E-002,5.564572289586067E-002,-9.879886507987976E-001,7.032700628042221E-002,-5.102333799004555E-002,5.564572289586067E-002,-9.879886507987976E-001,7.032700628042221E-002,
1.058133333333333E+009,-4.560509324073792E-002,6.355749815702438E-002,-9.834487438201904E-001,8.807883411645889E-002,-4.560509324073792E-002,6.355749815702438E-002,-9.834487438201904E-001,8.807883411645889E-002,
1.066500000000000E+009,-3.542736545205116E-002,6.973984837532044E-002,-9.904713034629822E-001,1.262053400278091E-001,-3.542736545205116E-002,6.973984837532044E-002,-9.904713034629822E-001,1.262053400278091E-001,
1.074866666666667E+009,-2.483883127570152E-002,6.777907907962799E-002,-9.728563427925110E-001,1.440207511186600E-001,-2.483883127570152E-002,6.777907907962799E-002,-9.728563427925110E-001,1.440207511186600E-001,
1.083233333333334E+009,-1.414972729980946E-002,5.836680531501770E-002,-9.713315367698669E-001,1.658584326505661E-001,-1.414972729980946E-002,5.836680531501770E-002,-9.713315367698669E-001,1.658584326505661E-001,
1.091600000000000E+009,-9.016682393848896E-003,4.934885725378990E-002,-9.635317921638489E-001,1.889599561691284E-001,-9.016682393848896E-003,4.934885725378990E-002,-9.635317921638489E-001,1.889599561691284E-001,
1.099966666666667E+009,-9.132601320743561E-003,3.841933608055115E-002,-9.663881063461304E-001,2.280564606189728E-001,-9.132601320743561E-003,3.841933608055115E-002,-9.663881063461304E-001,2.280564606189728E-001,
1.108333333333334E+009,-1.893634907901287E-002,2.984701655805111E-002,-9.441903233528137E-001,2.311139404773712E-001,-1.893634907901287E-002,2.984701655805111E-002,-9.441903233528137E-001,2.311139404773712E-001,
1.116700000000000E+009,-3.035970963537693E-002,3.174612298607826E-002,-9.428476095199585E-001,2.778375744819641E-001,-3.035970963537693E-002,3.174612298607826E-002,-9.428476095199585E-001,2.778375744819641E-001,
1.125066666666667E+009,-4.427206516265869E-002,3.518633544445038E-002,-9.463784098625183E-001,2.879911661148071E-001,-4.427206516265869E-002,3.518633544445038E-002,-9.463784098625183E-001,2.879911661148071E-001,
1.133433333333334E+009,-5.257380753755570E-002,4.974231123924255E-002,-9.450562596321106E-001,3.122916221618652E-001,-5.257380753755570E-002,4.974231123924255E-002,-9.450562596321106E-001,3.122916221618652E-001,
1.141800000000000E+009,-5.274378135800362E-002,6.333089619874954E-002,-9.164839386940002E-001,3.316358327865601E-001,-5.274378135800362E-002,6.333089619874954E-002,-9.164839386940002E-001,3.316358327865601E-001,
1.150166666666667E+009,-4.614929109811783E-002,8.008443564176559E-002,-9.007329940795898E-001,3.617533445358276E-001,-4.614929109811783E-002,8.008443564176559E-002,-9.007329940795898E-001,3.617533445358276E-001,
1.158533333333334E+009,-3.166823461651802E-002,8.790444582700729E-002,-9.020504951477051E-001,3.849354982376099E-001,-3.166823461651802E-002,8.790444582700729E-002,-9.020504951477051E-001,3.849354982376099E-001,
1.166900000000000E+009,-1.308480929583311E-002,8.798153698444367E-002,-8.937516808509827E-001,4.169965088367462E-001,-1.308480929583311E-002,8.798153698444367E-002,-8.937516808509827E-001,4.169965088367462E-001,
1.175266666666667E+009,2.839596010744572E-003,7.672797143459320E-002,-8.855140209197998E-001,4.233407676219940E-001,2.839596010744572E-003,7.672797143459320E-002,-8.855140209197998E-001,4.233407676219940E-001,
1.183633333333334E+009,1.343410369008780E-002,6.187338754534721E-002,-8.745067715644836E-001,4.630575776100159E-001,1.343410369008780E-002,6.187338754534721E-002,-8.745067715644836E-001,4.630575776100159E-001,
1.192000000000000E+009,1.362606044858694E-002,4.268894717097282E-002,-8.646574020385742E-001,4.712418317794800E-001,1.362606044858694E-002,4.268894717097282E-002,-8.646574020385742E-001,4.712418317794800E-001,
1.200366666666667E+009,2.635201206430793E-003,2.901216596364975E-002,-8.551871180534363E-001,5.005199313163757E-001,2.635201206430793E-003,2.901216596364975E-002,-8.551871180534363E-001,5.005199313163757E-001,
1.208733333333334E+009,-1.308546308428049E-002,2.160996571183205E-002,-8.471689820289612E-001,5.190091133117676E-001,-1.308546308428049E-002,2.160996571183205E-002,-8.471689820289612E-001,5.190091133117676E-001,
1.217100000000000E+009,-3.049598447978497E-002,2.881934307515621E-002,-8.306000232696533E-001,5.389487743377686E-001,-3.049598447978497E-002,2.881934307515621E-002,-8.306000232696533E-001,5.389487743377686E-001,
1.225466666666667E+009,-3.969846665859222E-002,4.095090553164482E-002,-8.040540218353272E-001,5.657988786697388E-001,-3.969846665859222E-002,4.095090553164482E-002,-8.040540218353272E-001,5.657988786697388E-001,
1.233833333333334E+009,-4.567767679691315E-002,5.841901525855064E-002,-7.867426276206970E-001,5.824506282806397E-001,-4.567767679691315E-002,5.841901525855064E-002,-7.867426276206970E-001,5.824506282806397E-001,
1.242200000000000E+009,-4.126340895891190E-002,7.683983445167542E-002,-7.721450328826904E-001,5.927822589874268E-001,-4.126340895891190E-002,7.683983445167542E-002,-7.721450328826904E-001,5.927822589874268E-001,
1.250566666666667E+009,-2.567568607628346E-002,8.753131330013275E-002,-7.468948364257813E-001,6.198326349258423E-001,-2.567568607628346E-002,8.753131330013275E-002,-7.468948364257813E-001,6.198326349258423E-001,
1.258933333333334E+009,-6.235592067241669E-003,8.877117931842804E-002,-7.562594413757324E-001,6.397063732147217E-001,-6.235592067241669E-003,8.877117931842804E-002,-7.562594413757324E-001,6.397063732147217E-001,
1.267300000000000E+009,1.174009963870049E-002,7.815144211053848E-002,-7.381703853607178E-001,6.525639295578003E-001,1.174009963870049E-002,7.815144211053848E-002,-7.381703853607178E-001,6.525639295578003E-001,
1.275666666666667E+009,2.069592103362083E-002,5.954658612608910E-002,-7.055447697639465E-001,6.770191192626953E-001,2.069592103362083E-002,5.954658612608910E-002,-7.055447697639465E-001,6.770191192626953E-001,
1.284033333333334E+009,1.996352523565292E-002,3.886463865637779E-002,-6.981594562530518E-001,6.993699669837952E-001,1.996352523565292E-002,3.886463865637779E-002,-6.981594562530518E-001,6.993699669837952E-001,
1.292400000000000E+009,8.598279207944870E-003,2.290827594697475E-002,-6.842442750930786E-001,7.158964276313782E-001,8.598279207944870E-003,2.290827594697475E-002,-6.842442750930786E-001,7.158964276313782E-001,
1.300766666666667E+009,-1.003297138959169E-002,1.563528925180435E-002,-6.589282155036926E-001,7.325534224510193E-001,-1.003297138959169E-002,1.563528925180435E-002,-6.589282155036926E-001,7.325534224510193E-001,
1.309133333333334E+009,-2.956159040331841E-002,2.069927565753460E-002,-6.440508365631104E-001,7.493638396263123E-001,-2.956159040331841E-002,2.069927565753460E-002,-6.440508365631104E-001,7.493638396263123E-001,
1.317500000000000E+009,-4.254338145256043E-002,3.642247617244721E-002,-6.195991635322571E-001,7.626609802246094E-001,-4.254338145256043E-002,3.642247617244721E-002,-6.195991635322571E-001,7.626609802246094E-001,
1.325866666666667E+009,-4.544098675251007E-002,5.717985704541206E-002,-6.024152636528015E-001,7.751001715660095E-001,-4.544098675251007E-002,5.717985704541206E-002,-6.024152636528015E-001,7.751001715660095E-001,
1.334233333333334E+009,-3.740640729665756E-002,7.583305984735489E-002,-5.745053291320801E-001,7.940798401832581E-001,-3.740640729665756E-002,7.583305984735489E-002,-5.745053291320801E-001,7.940798401832581E-001,
1.342600000000000E+009,-2.205910161137581E-002,8.566550910472870E-002,-5.567113161087036E-001,8.105145096778870E-001,-2.205910161137581E-002,8.566550910472870E-002,-5.567113161087036E-001,8.105145096778870E-001,
1.350966666666667E+009,-2.981403144076467E-003,8.507692813873291E-002,-5.281922221183777E-001,8.353145122528076E-001,-2.981403144076467E-003,8.507692813873291E-002,-5.281922221183777E-001,8.353145122528076E-001,
1.359333333333334E+009,1.171176321804524E-002,7.437659800052643E-002,-5.170073509216309E-001,8.372346758842468E-001,1.171176321804524E-002,7.437659800052643E-002,-5.170073509216309E-001,8.372346758842468E-001,
1.367700000000000E+009,1.537978556007147E-002,5.302774533629417E-002,-5.001323223114014E-001,8.470720052719116E-001,1.537978556007147E-002,5.302774533629417E-002,-5.001323223114014E-001,8.470720052719116E-001,
1.376066666666667E+009,1.070872042328119E-002,3.534324467182159E-002,-4.835478663444519E-001,8.657697439193726E-001,1.070872042328119E-002,3.534324467182159E-002,-4.835478663444519E-001,8.657697439193726E-001,
1.384433333333334E+009,-6.138733122497797E-003,1.988423429429531E-002,-4.564542174339294E-001,8.897467255592346E-001,-6.138733122497797E-003,1.988423429429531E-002,-4.564542174339294E-001,8.897467255592346E-001,
1.392800000000000E+009,-2.704749070107937E-002,1.909021660685539E-002,-4.400512874126434E-001,8.837940692901611E-001,-2.704749070107937E-002,1.909021660685539E-002,-4.400512874126434E-001,8.837940692901611E-001,
1.401166666666667E+009,-4.622891545295715E-002,3.112506866455078E-002,-4.140709042549133E-001,9.026582241058350E-001,-4.622891545295715E-002,3.112506866455078E-002,-4.140709042549133E-001,9.026582241058350E-001,
1.409533333333334E+009,-5.702038481831551E-002,4.861631244421005E-002,-3.809024095535278E-001,9.099401831626892E-001,-5.702038481831551E-002,4.861631244421005E-002,-3.809024095535278E-001,9.099401831626892E-001,
1.417900000000000E+009,-5.604391545057297E-002,7.490042597055435E-002,-3.679873645305634E-001,9.025373458862305E-001,-5.604391545057297E-002,7.490042597055435E-002,-3.679873645305634E-001,9.025373458862305E-001,
1.426266666666667E+009,-4.146920517086983E-002,9.359922260046005E-002,-3.347155451774597E-001,9.250611066818237E-001,-4.146920517086983E-002,9.359922260046005E-002,-3.347155451774597E-001,9.250611066818237E-001,
1.434633333333334E+009,-2.190752327442169E-002,1.048561632633209E-001,-3.047040700912476E-001,9.317393898963928E-001,-2.190752327442169E-002,1.048561632633209E-001,-3.047040700912476E-001,9.317393898963928E-001,
1.443000000000000E+009,2.798509667627513E-004,1.041235923767090E-001,-2.902236878871918E-001,9.371076822280884E-001,2.798509667627513E-004,1.041235923767090E-001,-2.902236878871918E-001,9.371076822280884E-001,
1.451366666666667E+009,1.627195067703724E-002,9.169483929872513E-002,-2.627605795860291E-001,9.410429596900940E-001,1.627195067703724E-002,9.169483929872513E-002,-2.627605795860291E-001,9.410429596900940E-001,
1.459733333333334E+009,2.459912747144699E-002,7.087574154138565E-002,-2.434566766023636E-001,9.479378461837769E-001,2.459912747144699E-002,7.087574154138565E-002,-2.434566766023636E-001,9.479378461837769E-001,
