% Version 1.00
%
%freq[Hz],re:Trc1_S11,im:Trc1_S11,re:Trc2_S21,im:Trc2_S21,re:Trc3_S11,im:Trc3_S11,re:Trc4_S21,im:Trc4_S21,
6.900000000000000E+008,-3.332800418138504E-002,5.678769201040268E-002,-4.990566670894623E-001,-8.492281436920166E-001,-3.332800418138504E-002,5.678769201040268E-002,-4.990566670894623E-001,-8.492281436920166E-001,
6.983666666666666E+008,-2.301794849336147E-002,5.818905681371689E-002,-5.217363238334656E-001,-8.404923081398010E-001,-2.301794849336147E-002,5.818905681371689E-002,-5.217363238334656E-001,-8.404923081398010E-001,
7.067333333333334E+008,-1.567215099930763E-002,5.358275771141052E-002,-5.668064951896668E-001,-7.785225510597229E-001,-1.567215099930763E-002,5.358275771141052E-002,-5.668064951896668E-001,-7.785225510597229E-001,
7.151000000000000E+008,-1.380079705268145E-002,4.643954709172249E-002,-5.858857035636902E-001,-7.918233275413513E-001,-1.380079705268145E-002,4.643954709172249E-002,-5.858857035636902E-001,-7.918233275413513E-001,
7.234666666666666E+008,-1.597666926681995E-002,4.130581021308899E-002,-5.976459383964539E-001,-7.800997495651245E-001,-1.597666926681995E-002,4.130581021308899E-002,-5.976459383964539E-001,-7.800997495651245E-001,
7.318333333333334E+008,-2.188841253519058E-002,3.918134793639183E-002,-6.129114031791687E-001,-7.783183455467224E-001,-2.188841253519058E-002,3.918134793639183E-002,-6.129114031791687E-001,-7.783183455467224E-001,
7.402000000000000E+008,-2.771586179733276E-002,3.955489397048950E-002,-6.576222777366638E-001,-7.604333162307739E-001,-2.771586179733276E-002,3.955489397048950E-002,-6.576222777366638E-001,-7.604333162307739E-001,
7.485666666666666E+008,-3.389475122094154E-002,4.580376297235489E-002,-6.562926173210144E-001,-7.563095092773438E-001,-3.389475122094154E-002,4.580376297235489E-002,-6.562926173210144E-001,-7.563095092773438E-001,
7.569333333333334E+008,-3.456393256783485E-002,5.387051776051521E-002,-6.640104651451111E-001,-7.355335950851440E-001,-3.456393256783485E-002,5.387051776051521E-002,-6.640104651451111E-001,-7.355335950851440E-001,
7.653000000000000E+008,-2.902456931769848E-002,6.175351887941361E-002,-6.817003488540649E-001,-7.153820395469666E-001,-2.902456931769848E-002,6.175351887941361E-002,-6.817003488540649E-001,-7.153820395469666E-001,
7.736666666666666E+008,-2.162144891917706E-002,6.821059435606003E-002,-7.143501639366150E-001,-6.896047592163086E-001,-2.162144891917706E-002,6.821059435606003E-002,-7.143501639366150E-001,-6.896047592163086E-001,
7.820333333333334E+008,-1.162360329180956E-002,7.128019630908966E-002,-7.259725928306580E-001,-6.768165826797485E-001,-1.162360329180956E-002,7.128019630908966E-002,-7.259725928306580E-001,-6.768165826797485E-001,
7.904000000000000E+008,-2.913806238211691E-004,7.043973356485367E-002,-7.302618622779846E-001,-6.554474234580994E-001,-2.913806238211691E-004,7.043973356485367E-002,-7.302618622779846E-001,-6.554474234580994E-001,
7.987666666666666E+008,5.438372492790222E-003,6.510236114263535E-002,-7.647355198860169E-001,-6.349058151245117E-001,5.438372492790222E-003,6.510236114263535E-002,-7.647355198860169E-001,-6.349058151245117E-001,
8.071333333333334E+008,9.562810882925987E-003,5.996506288647652E-002,-7.698427438735962E-001,-6.234104037284851E-001,9.562810882925987E-003,5.996506288647652E-002,-7.698427438735962E-001,-6.234104037284851E-001,
8.155000000000000E+008,4.782092757523060E-003,5.384247750043869E-002,-7.928653359413147E-001,-6.016215085983276E-001,4.782092757523060E-003,5.384247750043869E-002,-7.928653359413147E-001,-6.016215085983276E-001,
8.238666666666666E+008,2.029682276770473E-003,4.964366555213928E-002,-7.942400574684143E-001,-5.721476078033447E-001,2.029682276770473E-003,4.964366555213928E-002,-7.942400574684143E-001,-5.721476078033447E-001,
8.322333333333334E+008,-4.539152607321739E-003,5.023085698485375E-002,-8.159333467483521E-001,-5.525293946266174E-001,-4.539152607321739E-003,5.023085698485375E-002,-8.159333467483521E-001,-5.525293946266174E-001,
8.406000000000000E+008,-9.324791841208935E-003,5.417583137750626E-002,-8.267194628715515E-001,-5.395018458366394E-001,-9.324791841208935E-003,5.417583137750626E-002,-8.267194628715515E-001,-5.395018458366394E-001,
8.489666666666668E+008,-1.214925013482571E-002,6.160698831081390E-002,-8.373578786849976E-001,-5.242122411727905E-001,-1.214925013482571E-002,6.160698831081390E-002,-8.373578786849976E-001,-5.242122411727905E-001,
8.573333333333334E+008,-9.547200985252857E-003,6.925196945667267E-002,-8.543465137481690E-001,-4.835407137870789E-001,-9.547200985252857E-003,6.925196945667267E-002,-8.543465137481690E-001,-4.835407137870789E-001,
8.657000000000000E+008,2.952385402750224E-004,7.624145597219467E-002,-8.702907562255859E-001,-4.634962677955627E-001,2.952385402750224E-004,7.624145597219467E-002,-8.702907562255859E-001,-4.634962677955627E-001,
8.740666666666668E+008,9.009766392409802E-003,7.867603003978729E-002,-8.681774139404297E-001,-4.514843821525574E-001,9.009766392409802E-003,7.867603003978729E-002,-8.681774139404297E-001,-4.514843821525574E-001,
8.824333333333334E+008,1.984647475183010E-002,7.775600254535675E-002,-8.853077292442322E-001,-4.363116919994354E-001,1.984647475183010E-002,7.775600254535675E-002,-8.853077292442322E-001,-4.363116919994354E-001,
8.908000000000000E+008,2.990231104195118E-002,7.260065525770187E-002,-8.857872486114502E-001,-4.049870967864990E-001,2.990231104195118E-002,7.260065525770187E-002,-8.857872486114502E-001,-4.049870967864990E-001,
8.991666666666668E+008,3.426227346062660E-002,6.539639085531235E-002,-9.006111621856690E-001,-3.773917853832245E-001,3.426227346062660E-002,6.539639085531235E-002,-9.006111621856690E-001,-3.773917853832245E-001,
9.075333333333334E+008,3.548227995634079E-002,5.865796655416489E-002,-9.305509924888611E-001,-3.583846688270569E-001,3.548227995634079E-002,5.865796655416489E-002,-9.305509924888611E-001,-3.583846688270569E-001,
9.159000000000000E+008,3.340208902955055E-002,5.581149086356163E-002,-9.368377923965454E-001,-3.303016126155853E-001,3.340208902955055E-002,5.581149086356163E-002,-9.368377923965454E-001,-3.303016126155853E-001,
9.242666666666668E+008,2.881040237843990E-002,5.248168110847473E-002,-9.418824911117554E-001,-3.160496652126312E-001,2.881040237843990E-002,5.248168110847473E-002,-9.418824911117554E-001,-3.160496652126312E-001,
9.326333333333334E+008,2.189490757882595E-002,5.340098589658737E-002,-9.627114534378052E-001,-2.919779717922211E-001,2.189490757882595E-002,5.340098589658737E-002,-9.627114534378052E-001,-2.919779717922211E-001,
9.410000000000000E+008,1.901624351739883E-002,5.774607881903648E-002,-9.557588696479797E-001,-2.581965029239655E-001,1.901624351739883E-002,5.774607881903648E-002,-9.557588696479797E-001,-2.581965029239655E-001,
9.493666666666668E+008,1.905227638781071E-002,6.388699263334274E-002,-9.539715051651001E-001,-2.400826960802078E-001,1.905227638781071E-002,6.388699263334274E-002,-9.539715051651001E-001,-2.400826960802078E-001,
9.577333333333334E+008,2.263366430997849E-002,7.176382839679718E-002,-9.700320363044739E-001,-2.168089002370834E-001,2.263366430997849E-002,7.176382839679718E-002,-9.700320363044739E-001,-2.168089002370834E-001,
9.661000000000000E+008,3.261704370379448E-002,7.782198488712311E-002,-9.673993587493897E-001,-1.923500448465347E-001,3.261704370379448E-002,7.782198488712311E-002,-9.673993587493897E-001,-1.923500448465347E-001,
9.744666666666668E+008,4.153298214077950E-002,7.686036825180054E-002,-9.723660349845886E-001,-1.679073572158814E-001,4.153298214077950E-002,7.686036825180054E-002,-9.723660349845886E-001,-1.679073572158814E-001,
9.828333333333334E+008,5.562451481819153E-002,7.287937402725220E-002,-9.745723605155945E-001,-1.474797725677490E-001,5.562451481819153E-002,7.287937402725220E-002,-9.745723605155945E-001,-1.474797725677490E-001,
9.912000000000000E+008,6.374583393335342E-002,6.559926271438599E-002,-9.743027687072754E-001,-1.205451712012291E-001,6.374583393335342E-002,6.559926271438599E-002,-9.743027687072754E-001,-1.205451712012291E-001,
9.995666666666668E+008,7.049986720085144E-002,5.565680935978890E-002,-9.898719787597656E-001,-8.273845911026001E-002,7.049986720085144E-002,5.565680935978890E-002,-9.898719787597656E-001,-8.273845911026001E-002,
1.007933333333333E+009,7.109944522380829E-002,4.611051827669144E-002,-9.877634048461914E-001,-6.851071119308472E-002,7.109944522380829E-002,4.611051827669144E-002,-9.877634048461914E-001,-6.851071119308472E-002,
1.016300000000000E+009,6.591513007879257E-002,4.000742733478546E-002,-9.894710779190064E-001,-4.210403189063072E-002,6.591513007879257E-002,4.000742733478546E-002,-9.894710779190064E-001,-4.210403189063072E-002,
1.024666666666667E+009,5.935724079608917E-002,3.390108421444893E-002,-9.890362620353699E-001,-9.088595397770405E-003,5.935724079608917E-002,3.390108421444893E-002,-9.890362620353699E-001,-9.088595397770405E-003,
1.033033333333333E+009,5.317968502640724E-002,3.641616553068161E-002,-9.883990883827210E-001,9.996924549341202E-003,5.317968502640724E-002,3.641616553068161E-002,-9.883990883827210E-001,9.996924549341202E-003,
1.041400000000000E+009,4.791017621755600E-002,4.180172830820084E-002,-9.737191796302795E-001,4.826980829238892E-002,4.791017621755600E-002,4.180172830820084E-002,-9.737191796302795E-001,4.826980829238892E-002,
1.049766666666667E+009,4.815278574824333E-002,4.909974336624146E-002,-9.858785271644592E-001,6.748934835195541E-002,4.815278574824333E-002,4.909974336624146E-002,-9.858785271644592E-001,6.748934835195541E-002,
1.058133333333333E+009,5.437916889786720E-002,5.450601503252983E-002,-9.795342087745667E-001,8.634620904922485E-002,5.437916889786720E-002,5.450601503252983E-002,-9.795342087745667E-001,8.634620904922485E-002,
1.066500000000000E+009,6.605798751115799E-002,5.706500634551048E-002,-9.858928322792053E-001,1.252133399248123E-001,6.605798751115799E-002,5.706500634551048E-002,-9.858928322792053E-001,1.252133399248123E-001,
1.074866666666667E+009,7.640746235847473E-002,5.385358259081841E-002,-9.678010940551758E-001,1.414034366607666E-001,7.640746235847473E-002,5.385358259081841E-002,-9.678010940551758E-001,1.414034366607666E-001,
1.083233333333334E+009,8.764823526144028E-002,4.119998589158058E-002,-9.660428762435913E-001,1.624073833227158E-001,8.764823526144028E-002,4.119998589158058E-002,-9.660428762435913E-001,1.624073833227158E-001,
1.091600000000000E+009,9.396822750568390E-002,3.016112931072712E-002,-9.570940136909485E-001,1.840732991695404E-001,9.396822750568390E-002,3.016112931072712E-002,-9.570940136909485E-001,1.840732991695404E-001,
1.099966666666667E+009,9.602986276149750E-002,1.511101331561804E-002,-9.602739810943604E-001,2.222743779420853E-001,9.602986276149750E-002,1.511101331561804E-002,-9.602739810943604E-001,2.222743779420853E-001,
1.108333333333334E+009,8.761126548051834E-002,4.194288514554501E-003,-9.392470121383667E-001,2.255283147096634E-001,8.761126548051834E-002,4.194288514554501E-003,-9.392470121383667E-001,2.255283147096634E-001,
1.116700000000000E+009,7.462969422340393E-002,2.799333073198795E-003,-9.387139081954956E-001,2.702101469039917E-001,7.462969422340393E-002,2.799333073198795E-003,-9.387139081954956E-001,2.702101469039917E-001,
1.125066666666667E+009,6.328741461038590E-002,3.287439933046699E-003,-9.436656236648560E-001,2.805884480476379E-001,6.328741461038590E-002,3.287439933046699E-003,-9.436656236648560E-001,2.805884480476379E-001,
1.133433333333334E+009,5.506539717316628E-002,1.438775751739740E-002,-9.438394308090210E-001,3.058121204376221E-001,5.506539717316628E-002,1.438775751739740E-002,-9.438394308090210E-001,3.058121204376221E-001,
1.141800000000000E+009,5.467155575752258E-002,2.485137805342674E-002,-9.158486127853394E-001,3.270155489444733E-001,5.467155575752258E-002,2.485137805342674E-002,-9.158486127853394E-001,3.270155489444733E-001,
1.150166666666667E+009,6.175963208079338E-002,3.797541186213493E-002,-8.983792662620544E-001,3.579465448856354E-001,6.175963208079338E-002,3.797541186213493E-002,-8.983792662620544E-001,3.579465448856354E-001,
1.158533333333334E+009,7.586539536714554E-002,4.344451427459717E-002,-9.001285433769226E-001,3.823963403701782E-001,7.586539536714554E-002,4.344451427459717E-002,-9.001285433769226E-001,3.823963403701782E-001,
1.166900000000000E+009,9.494052827358246E-002,4.034364596009255E-002,-8.899683952331543E-001,4.153009355068207E-001,9.494052827358246E-002,4.034364596009255E-002,-8.899683952331543E-001,4.153009355068207E-001,
1.175266666666667E+009,1.089427098631859E-001,2.617747709155083E-002,-8.791821002960205E-001,4.197539985179901E-001,1.089427098631859E-001,2.617747709155083E-002,-8.791821002960205E-001,4.197539985179901E-001,
1.183633333333334E+009,1.195369511842728E-001,8.104332722723484E-003,-8.677126169204712E-001,4.575659930706024E-001,1.195369511842728E-001,8.104332722723484E-003,-8.677126169204712E-001,4.575659930706024E-001,
1.192000000000000E+009,1.198352575302124E-001,-1.410781685262919E-002,-8.572800159454346E-001,4.641261994838715E-001,1.198352575302124E-001,-1.410781685262919E-002,-8.572800159454346E-001,4.641261994838715E-001,
1.200366666666667E+009,1.090945154428482E-001,-3.064337000250816E-002,-8.488471508026123E-001,4.910125136375427E-001,1.090945154428482E-001,-3.064337000250816E-002,-8.488471508026123E-001,4.910125136375427E-001,
1.208733333333334E+009,9.407308697700501E-002,-4.109004139900208E-002,-8.433758020401001E-001,5.077203512191773E-001,9.407308697700501E-002,-4.109004139900208E-002,-8.433758020401001E-001,5.077203512191773E-001,
1.217100000000000E+009,7.672426104545593E-002,-3.879335522651672E-002,-8.291189074516296E-001,5.287505984306335E-001,7.672426104545593E-002,-3.879335522651672E-002,-8.291189074516296E-001,5.287505984306335E-001,
1.225466666666667E+009,6.593516469001770E-002,-3.182655572891235E-002,-8.039587736129761E-001,5.557482242584229E-001,6.593516469001770E-002,-3.182655572891235E-002,-8.039587736129761E-001,5.557482242584229E-001,
1.233833333333334E+009,5.944420397281647E-002,-1.640068367123604E-002,-7.879016995429993E-001,5.744721889495850E-001,5.944420397281647E-002,-1.640068367123604E-002,-7.879016995429993E-001,5.744721889495850E-001,
1.242200000000000E+009,6.346213072538376E-002,-1.276638009585440E-003,-7.732469439506531E-001,5.879189968109131E-001,6.346213072538376E-002,-1.276638009585440E-003,-7.732469439506531E-001,5.879189968109131E-001,
1.250566666666667E+009,7.799517363309860E-002,6.167558953166008E-003,-7.454977631568909E-001,6.159203648567200E-001,7.799517363309860E-002,6.167558953166008E-003,-7.454977631568909E-001,6.159203648567200E-001,
1.258933333333334E+009,9.486003220081329E-002,4.087969660758972E-003,-7.547660470008850E-001,6.355044245719910E-001,9.486003220081329E-002,4.087969660758972E-003,-7.547660470008850E-001,6.355044245719910E-001,
1.267300000000000E+009,1.108741015195847E-001,-9.895012713968754E-003,-7.334896922111511E-001,6.476246714591980E-001,1.108741015195847E-001,-9.895012713968754E-003,-7.334896922111511E-001,6.476246714591980E-001,
1.275666666666667E+009,1.193154156208038E-001,-3.016841225326061E-002,-6.996853947639465E-001,6.698883175849915E-001,1.193154156208038E-001,-3.016841225326061E-002,-6.996853947639465E-001,6.698883175849915E-001,
1.284033333333334E+009,1.169158816337585E-001,-5.408622696995735E-002,-6.921280026435852E-001,6.882911920547485E-001,1.169158816337585E-001,-5.408622696995735E-002,-6.921280026435852E-001,6.882911920547485E-001,
1.292400000000000E+009,1.048350706696510E-001,-7.400185614824295E-002,-6.812914609909058E-001,7.028082609176636E-001,1.048350706696510E-001,-7.400185614824295E-002,-6.812914609909058E-001,7.028082609176636E-001,
1.300766666666667E+009,8.582939952611923E-002,-8.345364034175873E-002,-6.583587527275085E-001,7.183783054351807E-001,8.582939952611923E-002,-8.345364034175873E-002,-6.583587527275085E-001,7.183783054351807E-001,
1.309133333333334E+009,6.399428099393845E-002,-8.341078460216522E-002,-6.472626328468323E-001,7.356744408607483E-001,6.399428099393845E-002,-8.341078460216522E-002,-6.472626328468323E-001,7.356744408607483E-001,
1.317500000000000E+009,5.106807872653008E-002,-7.301373034715653E-002,-6.227919459342957E-001,7.509054541587830E-001,5.106807872653008E-002,-7.301373034715653E-002,-6.227919459342957E-001,7.509054541587830E-001,
1.325866666666667E+009,4.474587365984917E-002,-5.523258820176125E-002,-6.077768206596375E-001,7.661663889884949E-001,4.474587365984917E-002,-5.523258820176125E-002,-6.077768206596375E-001,7.661663889884949E-001,
1.334233333333334E+009,5.056824907660484E-002,-3.970278799533844E-002,-5.788706541061401E-001,7.875248789787293E-001,5.056824907660484E-002,-3.970278799533844E-002,-5.788706541061401E-001,7.875248789787293E-001,
1.342600000000000E+009,6.309708207845688E-002,-3.297555446624756E-002,-5.590072870254517E-001,8.059552311897278E-001,6.309708207845688E-002,-3.297555446624756E-002,-5.590072870254517E-001,8.059552311897278E-001,
1.350966666666667E+009,7.964543253183365E-002,-3.654635325074196E-002,-5.270770788192749E-001,8.289924860000610E-001,7.964543253183365E-002,-3.654635325074196E-002,-5.270770788192749E-001,8.289924860000610E-001,
1.359333333333334E+009,9.376462548971176E-002,-4.974047467112541E-002,-5.155649781227112E-001,8.299555182456970E-001,9.376462548971176E-002,-4.974047467112541E-002,-5.155649781227112E-001,8.299555182456970E-001,
1.367700000000000E+009,9.357655048370361E-002,-7.215275615453720E-002,-4.985411167144775E-001,8.376444578170776E-001,9.357655048370361E-002,-7.215275615453720E-002,-4.985411167144775E-001,8.376444578170776E-001,
1.376066666666667E+009,8.661380410194397E-002,-9.237926453351975E-002,-4.827409386634827E-001,8.528315424919128E-001,8.661380410194397E-002,-9.237926453351975E-002,-4.827409386634827E-001,8.528315424919128E-001,
1.384433333333334E+009,6.786120682954788E-002,-1.110896840691567E-001,-4.577549397945404E-001,8.734731078147888E-001,6.786120682954788E-002,-1.110896840691567E-001,-4.577549397945404E-001,8.734731078147888E-001,
1.392800000000000E+009,4.492679983377457E-002,-1.159979104995728E-001,-4.451232254505158E-001,8.680101037025452E-001,4.492679983377457E-002,-1.159979104995728E-001,-4.451232254505158E-001,8.680101037025452E-001,
1.401166666666667E+009,2.397264353930950E-002,-1.091243326663971E-001,-4.220797121524811E-001,8.871375918388367E-001,2.397264353930950E-002,-1.091243326663971E-001,-4.220797121524811E-001,8.871375918388367E-001,
1.409533333333334E+009,9.221691638231278E-003,-9.385234862565994E-002,-3.912855088710785E-001,8.989230394363403E-001,9.221691638231278E-003,-9.385234862565994E-002,-3.912855088710785E-001,8.989230394363403E-001,
1.417900000000000E+009,6.420761812478304E-003,-7.108765095472336E-002,-3.780159950256348E-001,8.943222165107727E-001,6.420761812478304E-003,-7.108765095472336E-002,-3.780159950256348E-001,8.943222165107727E-001,
1.426266666666667E+009,1.635378785431385E-002,-5.587815493345261E-002,-3.450438082218170E-001,9.197210073471069E-001,1.635378785431385E-002,-5.587815493345261E-002,-3.450438082218170E-001,9.197210073471069E-001,
1.434633333333334E+009,3.365402668714523E-002,-4.625852033495903E-002,-3.108628094196320E-001,9.289085268974304E-001,3.365402668714523E-002,-4.625852033495903E-002,-3.108628094196320E-001,9.289085268974304E-001,
1.443000000000000E+009,5.155865475535393E-002,-4.937884956598282E-002,-2.934072315692902E-001,9.325995445251465E-001,5.155865475535393E-002,-4.937884956598282E-002,-2.934072315692902E-001,9.325995445251465E-001,
1.451366666666667E+009,6.510225683450699E-002,-6.279093027114868E-002,-2.612651586532593E-001,9.350290894508362E-001,6.510225683450699E-002,-6.279093027114868E-002,-2.612651586532593E-001,9.350290894508362E-001,
1.459733333333334E+009,6.979977339506149E-002,-8.602445572614670E-002,-2.446604073047638E-001,9.366399049758911E-001,6.979977339506149E-002,-8.602445572614670E-002,-2.446604073047638E-001,9.366399049758911E-001,
