% Version 1.00
%
%freq[Hz],re:Trc1_S11,im:Trc1_S11,re:Trc2_S21,im:Trc2_S21,re:Trc3_S11,im:Trc3_S11,re:Trc4_S21,im:Trc4_S21,
6.900000000000000E+008,-1.724792644381523E-002,6.062537059187889E-002,-4.996411204338074E-001,-8.485031127929688E-001,-1.724792644381523E-002,6.062537059187889E-002,-4.996411204338074E-001,-8.485031127929688E-001,
6.983666666666666E+008,-6.650208029896021E-003,6.127149611711502E-002,-5.222951769828796E-001,-8.406575322151184E-001,-6.650208029896021E-003,6.127149611711502E-002,-5.222951769828796E-001,-8.406575322151184E-001,
7.067333333333334E+008,7.529411232098937E-004,5.634358525276184E-002,-5.674037933349609E-001,-7.793156504631043E-001,7.529411232098937E-004,5.634358525276184E-002,-5.674037933349609E-001,-7.793156504631043E-001,
7.151000000000000E+008,2.786328317597508E-003,4.819492623209953E-002,-5.872320532798767E-001,-7.919730544090271E-001,2.786328317597508E-003,4.819492623209953E-002,-5.872320532798767E-001,-7.919730544090271E-001,
7.234666666666666E+008,5.217313882894814E-004,4.257094487547875E-002,-5.995469689369202E-001,-7.789567112922669E-001,5.217313882894814E-004,4.257094487547875E-002,-5.995469689369202E-001,-7.789567112922669E-001,
7.318333333333334E+008,-4.972781985998154E-003,3.996900469064713E-002,-6.144892573356628E-001,-7.792101502418518E-001,-4.972781985998154E-003,3.996900469064713E-002,-6.144892573356628E-001,-7.792101502418518E-001,
7.402000000000000E+008,-1.065214909613133E-002,4.004005715250969E-002,-6.586165428161621E-001,-7.595770955085754E-001,-1.065214909613133E-002,4.004005715250969E-002,-6.586165428161621E-001,-7.595770955085754E-001,
7.485666666666666E+008,-1.600021310150623E-002,4.616240039467812E-002,-6.569110155105591E-001,-7.569378614425659E-001,-1.600021310150623E-002,4.616240039467812E-002,-6.569110155105591E-001,-7.569378614425659E-001,
7.569333333333334E+008,-1.603467017412186E-002,5.371792986989021E-002,-6.667694449424744E-001,-7.337562441825867E-001,-1.603467017412186E-002,5.371792986989021E-002,-6.667694449424744E-001,-7.337562441825867E-001,
7.653000000000000E+008,-9.711232036352158E-003,6.064007058739662E-002,-6.852040290832520E-001,-7.108200192451477E-001,-9.711232036352158E-003,6.064007058739662E-002,-6.852040290832520E-001,-7.108200192451477E-001,
7.736666666666666E+008,-1.512782415375114E-003,6.632620841264725E-002,-7.167673707008362E-001,-6.909670829772949E-001,-1.512782415375114E-003,6.632620841264725E-002,-7.167673707008362E-001,-6.909670829772949E-001,
7.820333333333334E+008,9.036764502525330E-003,6.865896284580231E-002,-7.271857857704163E-001,-6.787320971488953E-001,9.036764502525330E-003,6.865896284580231E-002,-7.271857857704163E-001,-6.787320971488953E-001,
7.904000000000000E+008,2.071059867739677E-002,6.673649698495865E-002,-7.325563430786133E-001,-6.543569564819336E-001,2.071059867739677E-002,6.673649698495865E-002,-7.325563430786133E-001,-6.543569564819336E-001,
7.987666666666666E+008,2.617195993661881E-002,6.088509410619736E-002,-7.663966417312622E-001,-6.363241076469421E-001,2.617195993661881E-002,6.088509410619736E-002,-7.663966417312622E-001,-6.363241076469421E-001,
8.071333333333334E+008,3.020716644823551E-002,5.478018522262573E-002,-7.715958952903748E-001,-6.227154731750488E-001,3.020716644823551E-002,5.478018522262573E-002,-7.715958952903748E-001,-6.227154731750488E-001,
8.155000000000000E+008,2.569598332047463E-002,4.795397445559502E-002,-7.950805425643921E-001,-6.017536520957947E-001,2.569598332047463E-002,4.795397445559502E-002,-7.950805425643921E-001,-6.017536520957947E-001,
8.238666666666666E+008,2.267680875957012E-002,4.282113909721375E-002,-7.973002791404724E-001,-5.738132596015930E-001,2.267680875957012E-002,4.282113909721375E-002,-7.973002791404724E-001,-5.738132596015930E-001,
8.322333333333334E+008,1.634087599813938E-002,4.259710013866425E-002,-8.153041601181030E-001,-5.533300638198853E-001,1.634087599813938E-002,4.259710013866425E-002,-8.153041601181030E-001,-5.533300638198853E-001,
8.406000000000000E+008,1.178236305713654E-002,4.573896899819374E-002,-8.293671011924744E-001,-5.411973595619202E-001,1.178236305713654E-002,4.573896899819374E-002,-8.293671011924744E-001,-5.411973595619202E-001,
8.489666666666668E+008,9.647480212152004E-003,5.226111039519310E-002,-8.409198522567749E-001,-5.244169831275940E-001,9.647480212152004E-003,5.226111039519310E-002,-8.409198522567749E-001,-5.244169831275940E-001,
8.573333333333334E+008,1.240281201899052E-002,5.941777303814888E-002,-8.568918108940125E-001,-4.836926460266113E-001,1.240281201899052E-002,5.941777303814888E-002,-8.568918108940125E-001,-4.836926460266113E-001,
8.657000000000000E+008,2.237960696220398E-002,6.459669768810272E-002,-8.746243119239807E-001,-4.634368717670441E-001,2.237960696220398E-002,6.459669768810272E-002,-8.746243119239807E-001,-4.634368717670441E-001,
8.740666666666668E+008,3.094581514596939E-002,6.631080061197281E-002,-8.695290684700012E-001,-4.517106413841248E-001,3.094581514596939E-002,6.631080061197281E-002,-8.695290684700012E-001,-4.517106413841248E-001,
8.824333333333334E+008,4.209503903985024E-002,6.438691914081574E-002,-8.887941241264343E-001,-4.358901083469391E-001,4.209503903985024E-002,6.438691914081574E-002,-8.887941241264343E-001,-4.358901083469391E-001,
8.908000000000000E+008,5.162791535258293E-002,5.854934081435204E-002,-8.885357379913330E-001,-4.047898352146149E-001,5.162791535258293E-002,5.854934081435204E-002,-8.885357379913330E-001,-4.047898352146149E-001,
8.991666666666668E+008,5.576421692967415E-002,5.056444182991982E-002,-9.018263816833496E-001,-3.771680891513825E-001,5.576421692967415E-002,5.056444182991982E-002,-9.018263816833496E-001,-3.771680891513825E-001,
9.075333333333334E+008,5.701595544815064E-002,4.247006401419640E-002,-9.309806823730469E-001,-3.568508625030518E-001,5.701595544815064E-002,4.247006401419640E-002,-9.309806823730469E-001,-3.568508625030518E-001,
9.159000000000000E+008,5.471742898225784E-002,3.856711834669113E-002,-9.398938417434692E-001,-3.282356858253479E-001,5.471742898225784E-002,3.856711834669113E-002,-9.398938417434692E-001,-3.282356858253479E-001,
9.242666666666668E+008,4.974009469151497E-002,3.413458541035652E-002,-9.450871348381043E-001,-3.146356046199799E-001,4.974009469151497E-002,3.413458541035652E-002,-9.450871348381043E-001,-3.146356046199799E-001,
9.326333333333334E+008,4.282845184206963E-002,3.384760022163391E-002,-9.654482603073120E-001,-2.890445590019226E-001,4.282845184206963E-002,3.384760022163391E-002,-9.654482603073120E-001,-2.890445590019226E-001,
9.410000000000000E+008,3.961374983191490E-002,3.705965355038643E-002,-9.590807557106018E-001,-2.567552924156189E-001,3.961374983191490E-002,3.705965355038643E-002,-9.590807557106018E-001,-2.567552924156189E-001,
9.493666666666668E+008,3.927919641137123E-002,4.189597815275192E-002,-9.555108547210693E-001,-2.392079830169678E-001,3.927919641137123E-002,4.189597815275192E-002,-9.555108547210693E-001,-2.392079830169678E-001,
9.577333333333334E+008,4.214830324053764E-002,4.903659969568253E-002,-9.725729227066040E-001,-2.149673700332642E-001,4.214830324053764E-002,4.903659969568253E-002,-9.725729227066040E-001,-2.149673700332642E-001,
9.661000000000000E+008,5.188077315688133E-002,5.350485444068909E-002,-9.692814350128174E-001,-1.898031681776047E-001,5.188077315688133E-002,5.350485444068909E-002,-9.692814350128174E-001,-1.898031681776047E-001,
9.744666666666668E+008,6.042329221963882E-002,5.242711305618286E-002,-9.768550992012024E-001,-1.677771955728531E-001,6.042329221963882E-002,5.242711305618286E-002,-9.768550992012024E-001,-1.677771955728531E-001,
9.828333333333334E+008,7.409853488206863E-002,4.751173406839371E-002,-9.769665598869324E-001,-1.455772519111633E-001,7.409853488206863E-002,4.751173406839371E-002,-9.769665598869324E-001,-1.455772519111633E-001,
9.912000000000000E+008,8.192488551139832E-002,3.948745131492615E-002,-9.773959517478943E-001,-1.183669045567513E-001,8.192488551139832E-002,3.948745131492615E-002,-9.773959517478943E-001,-1.183669045567513E-001,
9.995666666666668E+008,8.778744935989380E-002,2.852171659469605E-002,-9.932716488838196E-001,-7.904703170061112E-002,8.778744935989380E-002,2.852171659469605E-002,-9.932716488838196E-001,-7.904703170061112E-002,
1.007933333333333E+009,8.771607279777527E-002,1.806165836751461E-002,-9.942311048507690E-001,-6.552273035049439E-002,8.771607279777527E-002,1.806165836751461E-002,-9.942311048507690E-001,-6.552273035049439E-002,
1.016300000000000E+009,8.128026872873306E-002,1.053082011640072E-002,-9.943265318870544E-001,-4.110560938715935E-002,8.128026872873306E-002,1.053082011640072E-002,-9.943265318870544E-001,-4.110560938715935E-002,
1.024666666666667E+009,7.377083599567413E-002,2.994511742144823E-003,-9.941368103027344E-001,-8.524619042873383E-003,7.377083599567413E-002,2.994511742144823E-003,-9.941368103027344E-001,-8.524619042873383E-003,
1.033033333333333E+009,6.681552529335022E-002,4.333035554736853E-003,-9.933761954307556E-001,9.640106931328774E-003,6.681552529335022E-002,4.333035554736853E-003,-9.933761954307556E-001,9.640106931328774E-003,
1.041400000000000E+009,6.021719798445702E-002,8.942714892327786E-003,-9.808046221733093E-001,4.891430586576462E-002,6.021719798445702E-002,8.942714892327786E-003,-9.808046221733093E-001,4.891430586576462E-002,
1.049766666666667E+009,5.980467796325684E-002,1.483085192739964E-002,-9.932975769042969E-001,6.749433279037476E-002,5.980467796325684E-002,1.483085192739964E-002,-9.932975769042969E-001,6.749433279037476E-002,
1.058133333333333E+009,6.501837819814682E-002,1.986010372638702E-002,-9.860711097717285E-001,8.763334155082703E-002,6.501837819814682E-002,1.986010372638702E-002,-9.860711097717285E-001,8.763334155082703E-002,
1.066500000000000E+009,7.594754546880722E-002,2.154039405286312E-002,-9.927523732185364E-001,1.267840564250946E-001,7.594754546880722E-002,2.154039405286312E-002,-9.927523732185364E-001,1.267840564250946E-001,
1.074866666666667E+009,8.631562441587448E-002,1.790557429194450E-002,-9.747983217239380E-001,1.468741148710251E-001,8.631562441587448E-002,1.790557429194450E-002,-9.747983217239380E-001,1.468741148710251E-001,
1.083233333333334E+009,9.636662155389786E-002,4.790643695741892E-003,-9.719126820564270E-001,1.659607440233231E-001,9.636662155389786E-002,4.790643695741892E-003,-9.719126820564270E-001,1.659607440233231E-001,
1.091600000000000E+009,1.021344512701035E-001,-7.035607006400824E-003,-9.618289470672607E-001,1.871155500411987E-001,1.021344512701035E-001,-7.035607006400824E-003,-9.618289470672607E-001,1.871155500411987E-001,
1.099966666666667E+009,1.022389829158783E-001,-2.349256165325642E-002,-9.660268425941467E-001,2.247243225574493E-001,1.022389829158783E-001,-2.349256165325642E-002,-9.660268425941467E-001,2.247243225574493E-001,
1.108333333333334E+009,9.248834848403931E-002,-3.526789322495461E-002,-9.445638060569763E-001,2.297270596027374E-001,9.248834848403931E-002,-3.526789322495461E-002,-9.445638060569763E-001,2.297270596027374E-001,
1.116700000000000E+009,7.731218636035919E-002,-3.665025159716606E-002,-9.446849822998047E-001,2.725271582603455E-001,7.731218636035919E-002,-3.665025159716606E-002,-9.446849822998047E-001,2.725271582603455E-001,
1.125066666666667E+009,6.439930200576782E-002,-3.771600499749184E-002,-9.483801126480103E-001,2.830636799335480E-001,6.439930200576782E-002,-3.771600499749184E-002,-9.483801126480103E-001,2.830636799335480E-001,
1.133433333333334E+009,5.451127886772156E-002,-2.688962221145630E-002,-9.499956369400024E-001,3.076634407043457E-001,5.451127886772156E-002,-2.688962221145630E-002,-9.499956369400024E-001,3.076634407043457E-001,
1.141800000000000E+009,5.246273800730705E-002,-1.696875877678394E-002,-9.220333695411682E-001,3.297212421894074E-001,5.246273800730705E-002,-1.696875877678394E-002,-9.220333695411682E-001,3.297212421894074E-001,
1.150166666666667E+009,5.829880759119988E-002,-4.445868544280529E-003,-9.056331515312195E-001,3.594416081905365E-001,5.829880759119988E-002,-4.445868544280529E-003,-9.056331515312195E-001,3.594416081905365E-001,
1.158533333333334E+009,7.144827395677567E-002,1.153260236606002E-003,-9.065022468566895E-001,3.857556879520416E-001,7.144827395677567E-002,1.153260236606002E-003,-9.065022468566895E-001,3.857556879520416E-001,
1.166900000000000E+009,8.946395665407181E-002,-3.060368122532964E-003,-8.957639336585999E-001,4.206064939498901E-001,8.946395665407181E-002,-3.060368122532964E-003,-8.957639336585999E-001,4.206064939498901E-001,
1.175266666666667E+009,1.026426255702972E-001,-1.699092239141464E-002,-8.836334347724915E-001,4.261508882045746E-001,1.026426255702972E-001,-1.699092239141464E-002,-8.836334347724915E-001,4.261508882045746E-001,
1.183633333333334E+009,1.121721789240837E-001,-3.558851405978203E-002,-8.731771707534790E-001,4.629571437835693E-001,1.121721789240837E-001,-3.558851405978203E-002,-8.731771707534790E-001,4.629571437835693E-001,
1.192000000000000E+009,1.109820008277893E-001,-5.801091343164444E-002,-8.615371584892273E-001,4.686267375946045E-001,1.109820008277893E-001,-5.801091343164444E-002,-8.615371584892273E-001,4.686267375946045E-001,
1.200366666666667E+009,9.814464300870895E-002,-7.483240216970444E-002,-8.508926033973694E-001,4.965279102325440E-001,9.814464300870895E-002,-7.483240216970444E-002,-8.508926033973694E-001,4.965279102325440E-001,
1.208733333333334E+009,8.085548132658005E-002,-8.541896939277649E-002,-8.462737798690796E-001,5.125648975372315E-001,8.085548132658005E-002,-8.541896939277649E-002,-8.462737798690796E-001,5.125648975372315E-001,
1.217100000000000E+009,6.083932146430016E-002,-8.340635150671005E-002,-8.315315842628479E-001,5.332571268081665E-001,6.083932146430016E-002,-8.340635150671005E-002,-8.315315842628479E-001,5.332571268081665E-001,
1.225466666666667E+009,4.731230437755585E-002,-7.577199488878250E-002,-8.086135983467102E-001,5.587468743324280E-001,4.731230437755585E-002,-7.577199488878250E-002,-8.086135983467102E-001,5.587468743324280E-001,
1.233833333333334E+009,3.938313201069832E-002,-6.039336696267128E-002,-7.926088571548462E-001,5.785418152809143E-001,3.938313201069832E-002,-6.039336696267128E-002,-7.926088571548462E-001,5.785418152809143E-001,
1.242200000000000E+009,4.180138930678368E-002,-4.552827030420303E-002,-7.787290215492249E-001,5.932897925376892E-001,4.180138930678368E-002,-4.552827030420303E-002,-7.787290215492249E-001,5.932897925376892E-001,
1.250566666666667E+009,5.510928481817246E-002,-3.808143362402916E-002,-7.529027462005615E-001,6.227252483367920E-001,5.510928481817246E-002,-3.808143362402916E-002,-7.529027462005615E-001,6.227252483367920E-001,
1.258933333333334E+009,7.040612399578095E-002,-3.942661732435226E-002,-7.590727210044861E-001,6.436095833778381E-001,7.040612399578095E-002,-3.942661732435226E-002,-7.590727210044861E-001,6.436095833778381E-001,
1.267300000000000E+009,8.504591137170792E-002,-5.310736596584320E-002,-7.372220158576965E-001,6.553728580474854E-001,8.504591137170792E-002,-5.310736596584320E-002,-7.372220158576965E-001,6.553728580474854E-001,
1.275666666666667E+009,9.271331876516342E-002,-7.380932569503784E-002,-7.014949321746826E-001,6.789796352386475E-001,9.271331876516342E-002,-7.380932569503784E-002,-7.014949321746826E-001,6.789796352386475E-001,
1.284033333333334E+009,8.847215026617050E-002,-9.726701676845551E-002,-6.915470361709595E-001,6.951818466186523E-001,8.847215026617050E-002,-9.726701676845551E-002,-6.915470361709595E-001,6.951818466186523E-001,
1.292400000000000E+009,7.395461946725845E-002,-1.165719181299210E-001,-6.805349588394165E-001,7.097558975219727E-001,7.395461946725845E-002,-1.165719181299210E-001,-6.805349588394165E-001,7.097558975219727E-001,
1.300766666666667E+009,5.348886176943779E-002,-1.253474652767181E-001,-6.583351492881775E-001,7.244077920913696E-001,5.348886176943779E-002,-1.253474652767181E-001,-6.583351492881775E-001,7.244077920913696E-001,
1.309133333333334E+009,2.837992273271084E-002,-1.237986534833908E-001,-6.471809148788452E-001,7.398498058319092E-001,2.837992273271084E-002,-1.237986534833908E-001,-6.471809148788452E-001,7.398498058319092E-001,
1.317500000000000E+009,1.314255874603987E-002,-1.131174638867378E-001,-6.234617233276367E-001,7.551188468933106E-001,1.314255874603987E-002,-1.131174638867378E-001,-6.234617233276367E-001,7.551188468933106E-001,
1.325866666666667E+009,4.818242974579334E-003,-9.385465830564499E-002,-6.107262969017029E-001,7.700871229171753E-001,4.818242974579334E-003,-9.385465830564499E-002,-6.107262969017029E-001,7.700871229171753E-001,
1.334233333333334E+009,8.820001035928726E-003,-7.744666188955307E-002,-5.826422572135925E-001,7.928288578987122E-001,8.820001035928726E-003,-7.744666188955307E-002,-5.826422572135925E-001,7.928288578987122E-001,
1.342600000000000E+009,1.958683505654335E-002,-6.981144845485687E-002,-5.622969865798950E-001,8.140860795974731E-001,1.958683505654335E-002,-6.981144845485687E-002,-5.622969865798950E-001,8.140860795974731E-001,
1.350966666666667E+009,3.487989306449890E-002,-7.224203646183014E-002,-5.305179357528687E-001,8.361707329750061E-001,3.487989306449890E-002,-7.224203646183014E-002,-5.305179357528687E-001,8.361707329750061E-001,
1.359333333333334E+009,4.745037108659744E-002,-8.576591312885284E-002,-5.176447629928589E-001,8.386762142181397E-001,4.745037108659744E-002,-8.576591312885284E-002,-5.176447629928589E-001,8.386762142181397E-001,
1.367700000000000E+009,4.645087569952011E-002,-1.071200668811798E-001,-4.991654455661774E-001,8.464358448982239E-001,4.645087569952011E-002,-1.071200668811798E-001,-4.991654455661774E-001,8.464358448982239E-001,
1.376066666666667E+009,3.772100061178207E-002,-1.263944059610367E-001,-4.822119772434235E-001,8.605512380599976E-001,3.772100061178207E-002,-1.263944059610367E-001,-4.822119772434235E-001,8.605512380599976E-001,
1.384433333333334E+009,1.748706772923470E-002,-1.431830823421478E-001,-4.580902457237244E-001,8.809375166893005E-001,1.748706772923470E-002,-1.431830823421478E-001,-4.580902457237244E-001,8.809375166893005E-001,
1.392800000000000E+009,-7.232690230011940E-003,-1.459759026765823E-001,-4.444537162780762E-001,8.738552927970886E-001,-7.232690230011940E-003,-1.459759026765823E-001,-4.444537162780762E-001,8.738552927970886E-001,
1.401166666666667E+009,-3.083175607025623E-002,-1.373784989118576E-001,-4.219078421592712E-001,8.920080661773682E-001,-3.083175607025623E-002,-1.373784989118576E-001,-4.219078421592712E-001,8.920080661773682E-001,
1.409533333333334E+009,-4.661738127470017E-002,-1.196070089936256E-001,-3.916820585727692E-001,9.032275676727295E-001,-4.661738127470017E-002,-1.196070089936256E-001,-3.916820585727692E-001,9.032275676727295E-001,
1.417900000000000E+009,-5.105087161064148E-002,-9.502194821834564E-002,-3.799721002578735E-001,8.993561863899231E-001,-5.105087161064148E-002,-9.502194821834564E-002,-3.799721002578735E-001,8.993561863899231E-001,
1.426266666666667E+009,-4.285842925310135E-002,-7.766167074441910E-002,-3.456570208072662E-001,9.241685271263123E-001,-4.285842925310135E-002,-7.766167074441910E-002,-3.456570208072662E-001,9.241685271263123E-001,
1.434633333333334E+009,-2.727287076413631E-002,-6.674083322286606E-002,-3.152829706668854E-001,9.345233440399170E-001,-2.727287076413631E-002,-6.674083322286606E-002,-3.152829706668854E-001,9.345233440399170E-001,
1.443000000000000E+009,-1.051660161465406E-002,-6.790319085121155E-002,-2.970365285873413E-001,9.416907429695129E-001,-1.051660161465406E-002,-6.790319085121155E-002,-2.970365285873413E-001,9.416907429695129E-001,
1.451366666666667E+009,2.129642991349101E-003,-7.971568405628204E-002,-2.636624872684479E-001,9.427083134651184E-001,2.129642991349101E-003,-7.971568405628204E-002,-2.636624872684479E-001,9.427083134651184E-001,
1.459733333333334E+009,5.556591786444187E-003,-1.019312217831612E-001,-2.449815869331360E-001,9.471923112869263E-001,5.556591786444187E-003,-1.019312217831612E-001,-2.449815869331360E-001,9.471923112869263E-001,
