% Version 1.00
%
%freq[Hz],re:Trc1_S11,im:Trc1_S11,re:Trc2_S21,im:Trc2_S21,re:Trc3_S11,im:Trc3_S11,re:Trc4_S21,im:Trc4_S21,
6.900000000000000E+008,-5.673431232571602E-002,1.702984049916267E-002,-4.988332688808441E-001,-8.493458032608032E-001,-5.673431232571602E-002,1.702984049916267E-002,-4.988332688808441E-001,-8.493458032608032E-001,
6.983666666666666E+008,-4.789362475275993E-002,1.761479489505291E-002,-5.227500200271606E-001,-8.399885296821594E-001,-4.789362475275993E-002,1.761479489505291E-002,-5.227500200271606E-001,-8.399885296821594E-001,
7.067333333333334E+008,-4.217333719134331E-002,1.231980230659246E-002,-5.674126744270325E-001,-7.783179283142090E-001,-4.217333719134331E-002,1.231980230659246E-002,-5.674126744270325E-001,-7.783179283142090E-001,
7.151000000000000E+008,-4.280941933393478E-002,5.152394063770771E-003,-5.868686437606812E-001,-7.916156649589539E-001,-4.280941933393478E-002,5.152394063770771E-003,-5.868686437606812E-001,-7.916156649589539E-001,
7.234666666666666E+008,-4.692917689681053E-002,2.348490379517898E-004,-5.983679294586182E-001,-7.792616486549377E-001,-4.692917689681053E-002,2.348490379517898E-004,-5.983679294586182E-001,-7.792616486549377E-001,
7.318333333333334E+008,-5.503102391958237E-002,-1.649764017201960E-003,-6.128242611885071E-001,-7.771281599998474E-001,-5.503102391958237E-002,-1.649764017201960E-003,-6.128242611885071E-001,-7.771281599998474E-001,
7.402000000000000E+008,-6.226646900177002E-002,-7.689165649935603E-004,-6.578876972198486E-001,-7.600900530815125E-001,-6.226646900177002E-002,-7.689165649935603E-004,-6.578876972198486E-001,-7.600900530815125E-001,
7.485666666666666E+008,-7.021664083003998E-002,6.042221095412970E-003,-6.568489670753479E-001,-7.562472820281982E-001,-7.021664083003998E-002,6.042221095412970E-003,-6.568489670753479E-001,-7.562472820281982E-001,
7.569333333333334E+008,-7.239364087581635E-002,1.435970235615969E-002,-6.629673242568970E-001,-7.355529069900513E-001,-7.239364087581635E-002,1.435970235615969E-002,-6.629673242568970E-001,-7.355529069900513E-001,
7.653000000000000E+008,-6.847105920314789E-002,2.265708893537521E-002,-6.810910105705261E-001,-7.155128717422485E-001,-6.847105920314789E-002,2.265708893537521E-002,-6.810910105705261E-001,-7.155128717422485E-001,
7.736666666666666E+008,-6.205419450998306E-002,2.871673926711083E-002,-7.144436240196228E-001,-6.900482773780823E-001,-6.205419450998306E-002,2.871673926711083E-002,-7.144436240196228E-001,-6.900482773780823E-001,
7.820333333333334E+008,-5.396591871976852E-002,3.194652870297432E-002,-7.266685962677002E-001,-6.777454018592835E-001,-5.396591871976852E-002,3.194652870297432E-002,-7.266685962677002E-001,-6.777454018592835E-001,
7.904000000000000E+008,-4.484489932656288E-002,3.127853199839592E-002,-7.311525940895081E-001,-6.567629575729370E-001,-4.484489932656288E-002,3.127853199839592E-002,-7.311525940895081E-001,-6.567629575729370E-001,
7.987666666666666E+008,-4.102519154548645E-002,2.602568641304970E-002,-7.651152610778809E-001,-6.353750228881836E-001,-4.102519154548645E-002,2.602568641304970E-002,-7.651152610778809E-001,-6.353750228881836E-001,
8.071333333333334E+008,-3.908977657556534E-002,2.158288471400738E-002,-7.710484862327576E-001,-6.231551766395569E-001,-3.908977657556534E-002,2.158288471400738E-002,-7.710484862327576E-001,-6.231551766395569E-001,
8.155000000000000E+008,-4.589253664016724E-002,1.554900780320168E-002,-7.943410873413086E-001,-6.008372306823731E-001,-4.589253664016724E-002,1.554900780320168E-002,-7.943410873413086E-001,-6.008372306823731E-001,
8.238666666666666E+008,-5.078997462987900E-002,1.305252499878407E-002,-7.952444553375244E-001,-5.721454620361328E-001,-5.078997462987900E-002,1.305252499878407E-002,-7.952444553375244E-001,-5.721454620361328E-001,
8.322333333333334E+008,-5.902426689863205E-002,1.436579972505570E-002,-8.168812990188599E-001,-5.529687404632568E-001,-5.902426689863205E-002,1.436579972505570E-002,-8.168812990188599E-001,-5.529687404632568E-001,
8.406000000000000E+008,-6.547384709119797E-002,1.982295140624046E-002,-8.264816403388977E-001,-5.394734144210815E-001,-6.547384709119797E-002,1.982295140624046E-002,-8.264816403388977E-001,-5.394734144210815E-001,
8.489666666666668E+008,-7.011394947767258E-002,2.731980197131634E-002,-8.373015522956848E-001,-5.249314904212952E-001,-7.011394947767258E-002,2.731980197131634E-002,-8.373015522956848E-001,-5.249314904212952E-001,
8.573333333333334E+008,-6.838474422693253E-002,3.550268337130547E-002,-8.545743823051453E-001,-4.844545722007752E-001,-6.838474422693253E-002,3.550268337130547E-002,-8.545743823051453E-001,-4.844545722007752E-001,
8.657000000000000E+008,-6.164378300309181E-002,4.419293254613876E-002,-8.715103864669800E-001,-4.641942083835602E-001,-6.164378300309181E-002,4.419293254613876E-002,-8.715103864669800E-001,-4.641942083835602E-001,
8.740666666666668E+008,-5.423846095800400E-002,4.736289381980896E-002,-8.699987530708313E-001,-4.529918134212494E-001,-5.423846095800400E-002,4.736289381980896E-002,-8.699987530708313E-001,-4.529918134212494E-001,
8.824333333333334E+008,-4.498544335365295E-002,4.726150259375572E-002,-8.874747753143311E-001,-4.380540251731873E-001,-4.498544335365295E-002,4.726150259375572E-002,-8.874747753143311E-001,-4.380540251731873E-001,
8.908000000000000E+008,-3.693508729338646E-002,4.349238052964211E-002,-8.884025812149048E-001,-4.056385159492493E-001,-3.693508729338646E-002,4.349238052964211E-002,-8.884025812149048E-001,-4.056385159492493E-001,
8.991666666666668E+008,-3.402994945645332E-002,3.739586099982262E-002,-9.038455486297607E-001,-3.782767057418823E-001,-3.402994945645332E-002,3.739586099982262E-002,-9.038455486297607E-001,-3.782767057418823E-001,
9.075333333333334E+008,-3.579727187752724E-002,3.204890713095665E-002,-9.335853457450867E-001,-3.592533469200134E-001,-3.579727187752724E-002,3.204890713095665E-002,-9.335853457450867E-001,-3.592533469200134E-001,
9.159000000000000E+008,-3.989630937576294E-002,3.115624189376831E-002,-9.381857514381409E-001,-3.307083249092102E-001,-3.989630937576294E-002,3.115624189376831E-002,-9.381857514381409E-001,-3.307083249092102E-001,
9.242666666666668E+008,-4.586157202720642E-002,2.959907986223698E-002,-9.436388611793518E-001,-3.147394061088562E-001,-4.586157202720642E-002,2.959907986223698E-002,-9.436388611793518E-001,-3.147394061088562E-001,
9.326333333333334E+008,-5.433967709541321E-002,3.192363679409027E-002,-9.644863009452820E-001,-2.913871705532074E-001,-5.433967709541321E-002,3.192363679409027E-002,-9.644863009452820E-001,-2.913871705532074E-001,
9.410000000000000E+008,-5.850357189774513E-002,3.777356073260307E-002,-9.565371274948120E-001,-2.585357427597046E-001,-5.850357189774513E-002,3.777356073260307E-002,-9.565371274948120E-001,-2.585357427597046E-001,
9.493666666666668E+008,-6.033902615308762E-002,4.581661522388458E-002,-9.552722573280335E-001,-2.408797442913055E-001,-6.033902615308762E-002,4.581661522388458E-002,-9.552722573280335E-001,-2.408797442913055E-001,
9.577333333333334E+008,-5.794467777013779E-002,5.496444180607796E-002,-9.698710441589356E-001,-2.184478193521500E-001,-5.794467777013779E-002,5.496444180607796E-002,-9.698710441589356E-001,-2.184478193521500E-001,
9.661000000000000E+008,-5.068898946046829E-002,6.345988065004349E-002,-9.683933854103088E-001,-1.935724467039108E-001,-5.068898946046829E-002,6.345988065004349E-002,-9.683933854103088E-001,-1.935724467039108E-001,
9.744666666666668E+008,-4.199440404772759E-002,6.436120718717575E-002,-9.749317169189453E-001,-1.705131232738495E-001,-4.199440404772759E-002,6.436120718717575E-002,-9.749317169189453E-001,-1.705131232738495E-001,
9.828333333333334E+008,-2.945851162075996E-002,6.230305507779121E-002,-9.781819581985474E-001,-1.495066136121750E-001,-2.945851162075996E-002,6.230305507779121E-002,-9.781819581985474E-001,-1.495066136121750E-001,
9.912000000000000E+008,-2.319518290460110E-002,5.681892856955528E-002,-9.782156944274902E-001,-1.217216998338699E-001,-2.319518290460110E-002,5.681892856955528E-002,-9.782156944274902E-001,-1.217216998338699E-001,
9.995666666666668E+008,-1.727648079395294E-002,4.963510110974312E-002,-9.945073127746582E-001,-8.379842340946198E-002,-1.727648079395294E-002,4.963510110974312E-002,-9.945073127746582E-001,-8.379842340946198E-002,
1.007933333333333E+009,-1.870118267834187E-002,4.197787865996361E-002,-9.915011525154114E-001,-6.879460066556931E-002,-1.870118267834187E-002,4.197787865996361E-002,-9.915011525154114E-001,-6.879460066556931E-002,
1.016300000000000E+009,-2.536179497838020E-002,3.818410634994507E-002,-9.923748970031738E-001,-4.083595797419548E-002,-2.536179497838020E-002,3.818410634994507E-002,-9.923748970031738E-001,-4.083595797419548E-002,
1.024666666666667E+009,-3.352886438369751E-002,3.407465666532517E-002,-9.933762550354004E-001,-8.255400694906712E-003,-3.352886438369751E-002,3.407465666532517E-002,-9.933762550354004E-001,-8.255400694906712E-003,
1.033033333333333E+009,-4.046775400638580E-002,3.906610608100891E-002,-9.916470646858215E-001,1.041585579514504E-002,-4.046775400638580E-002,3.906610608100891E-002,-9.916470646858215E-001,1.041585579514504E-002,
1.041400000000000E+009,-4.659678414463997E-002,4.673371091485024E-002,-9.771601557731628E-001,4.878313839435577E-002,-4.659678414463997E-002,4.673371091485024E-002,-9.771601557731628E-001,4.878313839435577E-002,
1.049766666666667E+009,-4.757058620452881E-002,5.688060447573662E-002,-9.885547757148743E-001,6.740930676460266E-002,-4.757058620452881E-002,5.688060447573662E-002,-9.885547757148743E-001,6.740930676460266E-002,
1.058133333333333E+009,-4.216730967164040E-002,6.477439403533936E-002,-9.837997555732727E-001,8.501482754945755E-002,-4.216730967164040E-002,6.477439403533936E-002,-9.837997555732727E-001,8.501482754945755E-002,
1.066500000000000E+009,-3.191202133893967E-002,7.107947021722794E-002,-9.911238551139832E-001,1.233047768473625E-001,-3.191202133893967E-002,7.107947021722794E-002,-9.911238551139832E-001,1.233047768473625E-001,
1.074866666666667E+009,-2.129903435707092E-002,6.913319230079651E-002,-9.735274910926819E-001,1.408506929874420E-001,-2.129903435707092E-002,6.913319230079651E-002,-9.735274910926819E-001,1.408506929874420E-001,
1.083233333333334E+009,-1.044323202222586E-002,5.970454961061478E-002,-9.723841547966003E-001,1.630412787199020E-001,-1.044323202222586E-002,5.970454961061478E-002,-9.723841547966003E-001,1.630412787199020E-001,
1.091600000000000E+009,-5.286132451146841E-003,5.061641335487366E-002,-9.638618230819702E-001,1.855554878711700E-001,-5.286132451146841E-003,5.061641335487366E-002,-9.638618230819702E-001,1.855554878711700E-001,
1.099966666666667E+009,-5.137410480529070E-003,3.950941935181618E-002,-9.673786163330078E-001,2.246587723493576E-001,-5.137410480529070E-003,3.950941935181618E-002,-9.673786163330078E-001,2.246587723493576E-001,
1.108333333333334E+009,-1.474451646208763E-002,3.084068186581135E-002,-9.447991251945496E-001,2.279107272624970E-001,-1.474451646208763E-002,3.084068186581135E-002,-9.447991251945496E-001,2.279107272624970E-001,
1.116700000000000E+009,-2.612636052072048E-002,3.250710293650627E-002,-9.441937208175659E-001,2.749477624893189E-001,-2.612636052072048E-002,3.250710293650627E-002,-9.441937208175659E-001,2.749477624893189E-001,
1.125066666666667E+009,-3.993031382560730E-002,3.574438765645027E-002,-9.473486542701721E-001,2.849894762039185E-001,-3.993031382560730E-002,3.574438765645027E-002,-9.473486542701721E-001,2.849894762039185E-001,
1.133433333333334E+009,-4.825050756335259E-002,5.019469186663628E-002,-9.461688995361328E-001,3.089067339897156E-001,-4.825050756335259E-002,5.019469186663628E-002,-9.461688995361328E-001,3.089067339897156E-001,
1.141800000000000E+009,-4.849207401275635E-002,6.370791792869568E-002,-9.181771278381348E-001,3.282226026058197E-001,-4.849207401275635E-002,6.370791792869568E-002,-9.181771278381348E-001,3.282226026058197E-001,
1.150166666666667E+009,-4.186841472983360E-002,8.052518963813782E-002,-9.020200371742249E-001,3.581063151359558E-001,-4.186841472983360E-002,8.052518963813782E-002,-9.020200371742249E-001,3.581063151359558E-001,
1.158533333333334E+009,-2.740211039781570E-002,8.850546181201935E-002,-9.033327102661133E-001,3.818194568157196E-001,-2.740211039781570E-002,8.850546181201935E-002,-9.033327102661133E-001,3.818194568157196E-001,
1.166900000000000E+009,-8.758865296840668E-003,8.871829509735107E-002,-8.955758810043335E-001,4.136550426483154E-001,-8.758865296840668E-003,8.871829509735107E-002,-8.955758810043335E-001,4.136550426483154E-001,
1.175266666666667E+009,7.189571857452393E-003,7.738199084997177E-002,-8.863152265548706E-001,4.203519225120544E-001,7.189571857452393E-003,7.738199084997177E-002,-8.863152265548706E-001,4.203519225120544E-001,
1.183633333333334E+009,1.797138899564743E-002,6.264264881610870E-002,-8.766790032386780E-001,4.594530463218689E-001,1.797138899564743E-002,6.264264881610870E-002,-8.766790032386780E-001,4.594530463218689E-001,
1.192000000000000E+009,1.838020607829094E-002,4.321782290935516E-002,-8.666135668754578E-001,4.681657254695892E-001,1.838020607829094E-002,4.321782290935516E-002,-8.666135668754578E-001,4.681657254695892E-001,
1.200366666666667E+009,7.531254086643457E-003,2.945586107671261E-002,-8.568701744079590E-001,4.973113834857941E-001,7.531254086643457E-003,2.945586107671261E-002,-8.568701744079590E-001,4.973113834857941E-001,
1.208733333333334E+009,-8.142925798892975E-003,2.174660935997963E-002,-8.492361903190613E-001,5.160613059997559E-001,-8.142925798892975E-003,2.174660935997963E-002,-8.492361903190613E-001,5.160613059997559E-001,
1.217100000000000E+009,-2.535738237202168E-002,2.857554331421852E-002,-8.324238061904907E-001,5.349511504173279E-001,-2.535738237202168E-002,2.857554331421852E-002,-8.324238061904907E-001,5.349511504173279E-001,
1.225466666666667E+009,-3.466021642088890E-002,4.051758348941803E-002,-8.066317439079285E-001,5.627437829971314E-001,-3.466021642088890E-002,4.051758348941803E-002,-8.066317439079285E-001,5.627437829971314E-001,
1.233833333333334E+009,-4.074039682745934E-002,5.788962543010712E-002,-7.891017794609070E-001,5.793389678001404E-001,-4.074039682745934E-002,5.788962543010712E-002,-7.891017794609070E-001,5.793389678001404E-001,
1.242200000000000E+009,-3.634104505181313E-002,7.631446421146393E-002,-7.747503519058228E-001,5.903227925300598E-001,-3.634104505181313E-002,7.631446421146393E-002,-7.747503519058228E-001,5.903227925300598E-001,
1.250566666666667E+009,-2.061135694384575E-002,8.713271468877792E-002,-7.483544349670410E-001,6.172572970390320E-001,-2.061135694384575E-002,8.713271468877792E-002,-7.483544349670410E-001,6.172572970390320E-001,
1.258933333333334E+009,-1.252446556463838E-003,8.840128779411316E-002,-7.586724758148193E-001,6.369294524192810E-001,-1.252446556463838E-003,8.840128779411316E-002,-7.586724758148193E-001,6.369294524192810E-001,
1.267300000000000E+009,1.683758385479450E-002,7.781869173049927E-002,-7.404037714004517E-001,6.496652960777283E-001,1.683758385479450E-002,7.781869173049927E-002,-7.404037714004517E-001,6.496652960777283E-001,
1.275666666666667E+009,2.597083523869515E-002,5.931969359517098E-002,-7.082630991935730E-001,6.742991209030151E-001,2.597083523869515E-002,5.931969359517098E-002,-7.082630991935730E-001,6.742991209030151E-001,
1.284033333333334E+009,2.532361075282097E-002,3.851172327995300E-002,-7.008858323097229E-001,6.957699656486511E-001,2.532361075282097E-002,3.851172327995300E-002,-7.008858323097229E-001,6.957699656486511E-001,
1.292400000000000E+009,1.422584615647793E-002,2.222932875156403E-002,-6.874274015426636E-001,7.130239009857178E-001,1.422584615647793E-002,2.222932875156403E-002,-6.874274015426636E-001,7.130239009857178E-001,
1.300766666666667E+009,-4.486980848014355E-003,1.472631562501192E-002,-6.620815992355347E-001,7.297847270965576E-001,-4.486980848014355E-003,1.472631562501192E-002,-6.620815992355347E-001,7.297847270965576E-001,
1.309133333333334E+009,-2.401727810502052E-002,1.935868710279465E-002,-6.477496027946472E-001,7.460481524467468E-001,-2.401727810502052E-002,1.935868710279465E-002,-6.477496027946472E-001,7.460481524467468E-001,
1.317500000000000E+009,-3.694133460521698E-002,3.484917059540749E-002,-6.219825744628906E-001,7.603638768196106E-001,-3.694133460521698E-002,3.484917059540749E-002,-6.219825744628906E-001,7.603638768196106E-001,
1.325866666666667E+009,-4.000876843929291E-002,5.552624538540840E-002,-6.061323285102844E-001,7.734718322753906E-001,-4.000876843929291E-002,5.552624538540840E-002,-6.061323285102844E-001,7.734718322753906E-001,
1.334233333333334E+009,-3.200333192944527E-002,7.415223121643066E-002,-5.780626535415649E-001,7.921107411384583E-001,-3.200333192944527E-002,7.415223121643066E-002,-5.780626535415649E-001,7.921107411384583E-001,
1.342600000000000E+009,-1.669140160083771E-002,8.390241861343384E-002,-5.603092908859253E-001,8.084201812744141E-001,-1.669140160083771E-002,8.390241861343384E-002,-5.603092908859253E-001,8.084201812744141E-001,
1.350966666666667E+009,2.524742623791099E-003,8.350040763616562E-002,-5.311987400054932E-001,8.326767086982727E-001,2.524742623791099E-003,8.350040763616562E-002,-5.311987400054932E-001,8.326767086982727E-001,
1.359333333333334E+009,1.736126095056534E-002,7.285635173320770E-002,-5.207861661911011E-001,8.352810740470886E-001,1.736126095056534E-002,7.285635173320770E-002,-5.207861661911011E-001,8.352810740470886E-001,
1.367700000000000E+009,2.114935219287872E-002,5.154876038432121E-002,-5.038534402847290E-001,8.447717428207398E-001,2.114935219287872E-002,5.154876038432121E-002,-5.038534402847290E-001,8.447717428207398E-001,
1.376066666666667E+009,1.660883240401745E-002,3.361560404300690E-002,-4.871321320533752E-001,8.634696006774902E-001,1.660883240401745E-002,3.361560404300690E-002,-4.871321320533752E-001,8.634696006774902E-001,
1.384433333333334E+009,-2.154806279577315E-004,1.803783699870110E-002,-4.604946374893189E-001,8.872760534286499E-001,-2.154806279577315E-004,1.803783699870110E-002,-4.604946374893189E-001,8.872760534286499E-001,
1.392800000000000E+009,-2.116859331727028E-002,1.693896763026714E-002,-4.446767270565033E-001,8.823514580726624E-001,-2.116859331727028E-002,1.693896763026714E-002,-4.446767270565033E-001,8.823514580726624E-001,
1.401166666666667E+009,-4.039130732417107E-002,2.851496823132038E-002,-4.181636571884155E-001,9.010816812515259E-001,-4.039130732417107E-002,2.851496823132038E-002,-4.181636571884155E-001,9.010816812515259E-001,
1.409533333333334E+009,-5.148343741893768E-002,4.581109806895256E-002,-3.848964571952820E-001,9.087176918983460E-001,-5.148343741893768E-002,4.581109806895256E-002,-3.848964571952820E-001,9.087176918983460E-001,
1.417900000000000E+009,-5.076914280653000E-002,7.190851867198944E-002,-3.713739216327667E-001,9.016163349151611E-001,-5.076914280653000E-002,7.190851867198944E-002,-3.713739216327667E-001,9.016163349151611E-001,
1.426266666666667E+009,-3.623110428452492E-002,9.056108444929123E-002,-3.385587930679321E-001,9.242015480995178E-001,-3.623110428452492E-002,9.056108444929123E-002,-3.385587930679321E-001,9.242015480995178E-001,
1.434633333333334E+009,-1.654199138283730E-002,1.019835919141769E-001,-3.087405264377594E-001,9.312692284584045E-001,-1.654199138283730E-002,1.019835919141769E-001,-3.087405264377594E-001,9.312692284584045E-001,
1.443000000000000E+009,5.713840946555138E-003,1.010721847414970E-001,-2.945182323455811E-001,9.360616207122803E-001,5.713840946555138E-003,1.010721847414970E-001,-2.945182323455811E-001,9.360616207122803E-001,
1.451366666666667E+009,2.194554358720779E-002,8.890755474567413E-002,-2.662438750267029E-001,9.399210214614868E-001,2.194554358720779E-002,8.890755474567413E-002,-2.662438750267029E-001,9.399210214614868E-001,
1.459733333333334E+009,3.046692349016666E-002,6.791236996650696E-002,-2.477967739105225E-001,9.466471672058106E-001,3.046692349016666E-002,6.791236996650696E-002,-2.477967739105225E-001,9.466471672058106E-001,
