% Version 1.00
%
%freq[Hz],re:Trc1_S11,im:Trc1_S11,re:Trc2_S21,im:Trc2_S21,re:Trc3_S11,im:Trc3_S11,re:Trc4_S21,im:Trc4_S21,
6.900000000000000E+008,-1.737205311655998E-002,6.069336086511612E-002,-5.001475214958191E-001,-8.492035269737244E-001,-1.737205311655998E-002,6.069336086511612E-002,-5.001475214958191E-001,-8.492035269737244E-001,
6.983666666666666E+008,-6.505330558866262E-003,6.151796877384186E-002,-5.248250961303711E-001,-8.405737876892090E-001,-6.505330558866262E-003,6.151796877384186E-002,-5.248250961303711E-001,-8.405737876892090E-001,
7.067333333333334E+008,6.943168700672686E-004,5.625936016440392E-002,-5.666853785514832E-001,-7.786916494369507E-001,6.943168700672686E-004,5.625936016440392E-002,-5.666853785514832E-001,-7.786916494369507E-001,
7.151000000000000E+008,2.759527182206512E-003,4.822863638401032E-002,-5.874046683311462E-001,-7.911682724952698E-001,2.759527182206512E-003,4.822863638401032E-002,-5.874046683311462E-001,-7.911682724952698E-001,
7.234666666666666E+008,6.872506928630173E-004,4.265172034502029E-002,-5.992277264595032E-001,-7.803243994712830E-001,6.872506928630173E-004,4.265172034502029E-002,-5.992277264595032E-001,-7.803243994712830E-001,
7.318333333333334E+008,-4.899915773421526E-003,3.995788469910622E-002,-6.154003143310547E-001,-7.786365151405335E-001,-4.899915773421526E-003,3.995788469910622E-002,-6.154003143310547E-001,-7.786365151405335E-001,
7.402000000000000E+008,-1.041877176612616E-002,4.025707393884659E-002,-6.599725484848023E-001,-7.613137364387512E-001,-1.041877176612616E-002,4.025707393884659E-002,-6.599725484848023E-001,-7.613137364387512E-001,
7.485666666666666E+008,-1.620651781558991E-002,4.611567407846451E-002,-6.573697924613953E-001,-7.560284733772278E-001,-1.620651781558991E-002,4.611567407846451E-002,-6.573697924613953E-001,-7.560284733772278E-001,
7.569333333333334E+008,-1.592951081693173E-002,5.354002863168716E-002,-6.662753224372864E-001,-7.350234985351563E-001,-1.592951081693173E-002,5.354002863168716E-002,-6.662753224372864E-001,-7.350234985351563E-001,
7.653000000000000E+008,-9.685764089226723E-003,6.053980067372322E-002,-6.864563226699829E-001,-7.177679538726807E-001,-9.685764089226723E-003,6.053980067372322E-002,-6.864563226699829E-001,-7.177679538726807E-001,
7.736666666666666E+008,-1.630754093639553E-003,6.672579050064087E-002,-7.155187129974365E-001,-6.898973584175110E-001,-1.630754093639553E-003,6.672579050064087E-002,-7.155187129974365E-001,-6.898973584175110E-001,
7.820333333333334E+008,8.984986692667007E-003,6.860839575529099E-002,-7.265461087226868E-001,-6.777878999710083E-001,8.984986692667007E-003,6.860839575529099E-002,-7.265461087226868E-001,-6.777878999710083E-001,
7.904000000000000E+008,2.056764438748360E-002,6.673706322908402E-002,-7.310174107551575E-001,-6.554663181304932E-001,2.056764438748360E-002,6.673706322908402E-002,-7.310174107551575E-001,-6.554663181304932E-001,
7.987666666666666E+008,2.607643418014050E-002,6.060064584016800E-002,-7.657055258750916E-001,-6.357228159904480E-001,2.607643418014050E-002,6.060064584016800E-002,-7.657055258750916E-001,-6.357228159904480E-001,
8.071333333333334E+008,3.038193285465241E-002,5.471647903323174E-002,-7.716841697692871E-001,-6.237595081329346E-001,3.038193285465241E-002,5.471647903323174E-002,-7.716841697692871E-001,-6.237595081329346E-001,
8.155000000000000E+008,2.571423165500164E-002,4.796008393168449E-002,-7.947468757629395E-001,-6.020948886871338E-001,2.571423165500164E-002,4.796008393168449E-002,-7.947468757629395E-001,-6.020948886871338E-001,
8.238666666666666E+008,2.276306413114071E-002,4.272032529115677E-002,-7.968897223472595E-001,-5.726116895675659E-001,2.276306413114071E-002,4.272032529115677E-002,-7.968897223472595E-001,-5.726116895675659E-001,
8.322333333333334E+008,1.644289493560791E-002,4.264262691140175E-002,-8.175933957099915E-001,-5.524135828018189E-001,1.644289493560791E-002,4.264262691140175E-002,-8.175933957099915E-001,-5.524135828018189E-001,
8.406000000000000E+008,1.180919259786606E-002,4.570933431386948E-002,-8.307972550392151E-001,-5.408630967140198E-001,1.180919259786606E-002,4.570933431386948E-002,-8.307972550392151E-001,-5.408630967140198E-001,
8.489666666666668E+008,9.597779251635075E-003,5.234010145068169E-002,-8.397219777107239E-001,-5.247033834457398E-001,9.597779251635075E-003,5.234010145068169E-002,-8.397219777107239E-001,-5.247033834457398E-001,
8.573333333333334E+008,1.233467459678650E-002,5.937477201223373E-002,-8.569938540458679E-001,-4.851934015750885E-001,1.233467459678650E-002,5.937477201223373E-002,-8.569938540458679E-001,-4.851934015750885E-001,
8.657000000000000E+008,2.226077578961849E-002,6.466057151556015E-002,-8.733694553375244E-001,-4.634444415569305E-001,2.226077578961849E-002,6.466057151556015E-002,-8.733694553375244E-001,-4.634444415569305E-001,
8.740666666666668E+008,3.096102736890316E-002,6.633394211530685E-002,-8.698403239250183E-001,-4.515117704868317E-001,3.096102736890316E-002,6.633394211530685E-002,-8.698403239250183E-001,-4.515117704868317E-001,
8.824333333333334E+008,4.198562353849411E-002,6.456179171800613E-002,-8.884629607200623E-001,-4.359709620475769E-001,4.198562353849411E-002,6.456179171800613E-002,-8.884629607200623E-001,-4.359709620475769E-001,
8.908000000000000E+008,5.169231444597244E-002,5.854586884379387E-002,-8.896923065185547E-001,-4.040489792823792E-001,5.169231444597244E-002,5.854586884379387E-002,-8.896923065185547E-001,-4.040489792823792E-001,
8.991666666666668E+008,5.581354349851608E-002,5.058473348617554E-002,-9.026982784271240E-001,-3.764765262603760E-001,5.581354349851608E-002,5.058473348617554E-002,-9.026982784271240E-001,-3.764765262603760E-001,
9.075333333333334E+008,5.710072070360184E-002,4.253288358449936E-002,-9.337478280067444E-001,-3.575587570667267E-001,5.710072070360184E-002,4.253288358449936E-002,-9.337478280067444E-001,-3.575587570667267E-001,
9.159000000000000E+008,5.457134544849396E-002,3.853377699851990E-002,-9.387226104736328E-001,-3.288966119289398E-001,5.457134544849396E-002,3.853377699851990E-002,-9.387226104736328E-001,-3.288966119289398E-001,
9.242666666666668E+008,4.994235932826996E-002,3.408571705222130E-002,-9.438239336013794E-001,-3.139787316322327E-001,4.994235932826996E-002,3.408571705222130E-002,-9.438239336013794E-001,-3.139787316322327E-001,
9.326333333333334E+008,4.279706627130508E-002,3.378644958138466E-002,-9.642981290817261E-001,-2.897133231163025E-001,4.279706627130508E-002,3.378644958138466E-002,-9.642981290817261E-001,-2.897133231163025E-001,
9.410000000000000E+008,3.953729569911957E-002,3.706947714090347E-002,-9.583310484886169E-001,-2.590776085853577E-001,3.953729569911957E-002,3.706947714090347E-002,-9.583310484886169E-001,-2.590776085853577E-001,
9.493666666666668E+008,3.911916166543961E-002,4.209633916616440E-002,-9.579529762268066E-001,-2.395540922880173E-001,3.911916166543961E-002,4.209633916616440E-002,-9.579529762268066E-001,-2.395540922880173E-001,
9.577333333333334E+008,4.227870702743530E-002,4.906131327152252E-002,-9.729345440864563E-001,-2.148999422788620E-001,4.227870702743530E-002,4.906131327152252E-002,-9.729345440864563E-001,-2.148999422788620E-001,
9.661000000000000E+008,5.202692747116089E-002,5.370394513010979E-002,-9.704228639602661E-001,-1.906986683607101E-001,5.202692747116089E-002,5.370394513010979E-002,-9.704228639602661E-001,-1.906986683607101E-001,
9.744666666666668E+008,6.045364961028099E-002,5.228373035788536E-002,-9.749526381492615E-001,-1.664288938045502E-001,6.045364961028099E-002,5.228373035788536E-002,-9.749526381492615E-001,-1.664288938045502E-001,
9.828333333333334E+008,7.426705956459045E-002,4.767739027738571E-002,-9.785375595092773E-001,-1.464271098375320E-001,7.426705956459045E-002,4.767739027738571E-002,-9.785375595092773E-001,-1.464271098375320E-001,
9.912000000000000E+008,8.187721669673920E-002,3.952483087778091E-002,-9.774315357208252E-001,-1.190448924899101E-001,8.187721669673920E-002,3.952483087778091E-002,-9.774315357208252E-001,-1.190448924899101E-001,
9.995666666666668E+008,8.754335343837738E-002,2.861730568110943E-002,-9.923991560935974E-001,-8.006292581558228E-002,8.754335343837738E-002,2.861730568110943E-002,-9.923991560935974E-001,-8.006292581558228E-002,
1.007933333333333E+009,8.767910301685333E-002,1.800897717475891E-002,-9.908282756805420E-001,-6.844971328973770E-002,8.767910301685333E-002,1.800897717475891E-002,-9.908282756805420E-001,-6.844971328973770E-002,
1.016300000000000E+009,8.145190030336380E-002,1.046270970255137E-002,-9.948647022247315E-001,-4.142785072326660E-002,8.145190030336380E-002,1.046270970255137E-002,-9.948647022247315E-001,-4.142785072326660E-002,
1.024666666666667E+009,7.397627830505371E-002,2.944695530459285E-003,-9.947011470794678E-001,-8.453593589365482E-003,7.397627830505371E-002,2.944695530459285E-003,-9.947011470794678E-001,-8.453593589365482E-003,
1.033033333333333E+009,6.680121272802353E-002,4.403715953230858E-003,-9.927431941032410E-001,9.794938378036022E-003,6.680121272802353E-002,4.403715953230858E-003,-9.927431941032410E-001,9.794938378036022E-003,
1.041400000000000E+009,6.043366342782974E-002,8.840383961796761E-003,-9.806283712387085E-001,4.837274551391602E-002,6.043366342782974E-002,8.840383961796761E-003,-9.806283712387085E-001,4.837274551391602E-002,
1.049766666666667E+009,5.951056629419327E-002,1.515013352036476E-002,-9.934833645820618E-001,6.833483278751373E-002,5.951056629419327E-002,1.515013352036476E-002,-9.934833645820618E-001,6.833483278751373E-002,
1.058133333333333E+009,6.549634039402008E-002,1.999446935951710E-002,-9.861961007118225E-001,8.774017542600632E-002,6.549634039402008E-002,1.999446935951710E-002,-9.861961007118225E-001,8.774017542600632E-002,
1.066500000000000E+009,7.575548440217972E-002,2.145593054592609E-002,-9.919162988662720E-001,1.267576962709427E-001,7.575548440217972E-002,2.145593054592609E-002,-9.919162988662720E-001,1.267576962709427E-001,
1.074866666666667E+009,8.610269427299500E-002,1.808395609259605E-002,-9.750385284423828E-001,1.448260396718979E-001,8.610269427299500E-002,1.808395609259605E-002,-9.750385284423828E-001,1.448260396718979E-001,
1.083233333333334E+009,9.646566957235336E-002,4.733144305646420E-003,-9.715755581855774E-001,1.660197377204895E-001,9.646566957235336E-002,4.733144305646420E-003,-9.715755581855774E-001,1.660197377204895E-001,
1.091600000000000E+009,1.021348014473915E-001,-6.805961485952139E-003,-9.627442359924316E-001,1.869396865367889E-001,1.021348014473915E-001,-6.805961485952139E-003,-9.627442359924316E-001,1.869396865367889E-001,
1.099966666666667E+009,1.025163382291794E-001,-2.344211377203465E-002,-9.655798673629761E-001,2.257110476493835E-001,1.025163382291794E-001,-2.344211377203465E-002,-9.655798673629761E-001,2.257110476493835E-001,
1.108333333333334E+009,9.245287626981735E-002,-3.533624112606049E-002,-9.442464113235474E-001,2.299255579710007E-001,9.245287626981735E-002,-3.533624112606049E-002,-9.442464113235474E-001,2.299255579710007E-001,
1.116700000000000E+009,7.715598493814468E-002,-3.659585863351822E-002,-9.423787593841553E-001,2.734969854354858E-001,7.715598493814468E-002,-3.659585863351822E-002,-9.423787593841553E-001,2.734969854354858E-001,
1.125066666666667E+009,6.447771936655045E-002,-3.750986233353615E-002,-9.491692781448364E-001,2.823603153228760E-001,6.447771936655045E-002,-3.750986233353615E-002,-9.491692781448364E-001,2.823603153228760E-001,
1.133433333333334E+009,5.442881211638451E-002,-2.707854285836220E-002,-9.501466155052185E-001,3.076080679893494E-001,5.442881211638451E-002,-2.707854285836220E-002,-9.501466155052185E-001,3.076080679893494E-001,
1.141800000000000E+009,5.250686779618263E-002,-1.686326228082180E-002,-9.210965037345886E-001,3.290189206600189E-001,5.250686779618263E-002,-1.686326228082180E-002,-9.210965037345886E-001,3.290189206600189E-001,
1.150166666666667E+009,5.819372087717056E-002,-4.262475762516260E-003,-9.032565355300903E-001,3.607771396636963E-001,5.819372087717056E-002,-4.262475762516260E-003,-9.032565355300903E-001,3.607771396636963E-001,
1.158533333333334E+009,7.147067040205002E-002,8.360409410670400E-004,-9.068565964698792E-001,3.863524496555328E-001,7.147067040205002E-002,8.360409410670400E-004,-9.068565964698792E-001,3.863524496555328E-001,
1.166900000000000E+009,8.933300524950028E-002,-2.838554093614221E-003,-8.959257602691650E-001,4.199693202972412E-001,8.933300524950028E-002,-2.838554093614221E-003,-8.959257602691650E-001,4.199693202972412E-001,
1.175266666666667E+009,1.025867611169815E-001,-1.685732603073120E-002,-8.854526877403259E-001,4.250734746456146E-001,1.025867611169815E-001,-1.685732603073120E-002,-8.854526877403259E-001,4.250734746456146E-001,
1.183633333333334E+009,1.121885776519775E-001,-3.570327535271645E-002,-8.723325133323669E-001,4.634131789207459E-001,1.121885776519775E-001,-3.570327535271645E-002,-8.723325133323669E-001,4.634131789207459E-001,
1.192000000000000E+009,1.108531132340431E-001,-5.813471600413322E-002,-8.609712719917297E-001,4.703331291675568E-001,1.108531132340431E-001,-5.813471600413322E-002,-8.609712719917297E-001,4.703331291675568E-001,
1.200366666666667E+009,9.802575409412384E-002,-7.516347616910934E-002,-8.514291048049927E-001,4.970617890357971E-001,9.802575409412384E-002,-7.516347616910934E-002,-8.514291048049927E-001,4.970617890357971E-001,
1.208733333333334E+009,8.076813817024231E-002,-8.533564954996109E-002,-8.472693562507629E-001,5.108091235160828E-001,8.076813817024231E-002,-8.533564954996109E-002,-8.472693562507629E-001,5.108091235160828E-001,
1.217100000000000E+009,6.080438941717148E-002,-8.323669433593750E-002,-8.325148820877075E-001,5.334244966506958E-001,6.080438941717148E-002,-8.323669433593750E-002,-8.325148820877075E-001,5.334244966506958E-001,
1.225466666666667E+009,4.727449640631676E-002,-7.564991712570190E-002,-8.097633719444275E-001,5.592972040176392E-001,4.727449640631676E-002,-7.564991712570190E-002,-8.097633719444275E-001,5.592972040176392E-001,
1.233833333333334E+009,3.946464136242867E-002,-6.024231389164925E-002,-7.920100092887878E-001,5.787180662155151E-001,3.946464136242867E-002,-6.024231389164925E-002,-7.920100092887878E-001,5.787180662155151E-001,
1.242200000000000E+009,4.171277210116386E-002,-4.539468884468079E-002,-7.774668931961060E-001,5.934388637542725E-001,4.171277210116386E-002,-4.539468884468079E-002,-7.774668931961060E-001,5.934388637542725E-001,
1.250566666666667E+009,5.496365949511528E-002,-3.781332075595856E-002,-7.516273856163025E-001,6.214378476142883E-001,5.496365949511528E-002,-3.781332075595856E-002,-7.516273856163025E-001,6.214378476142883E-001,
1.258933333333334E+009,7.023424655199051E-002,-3.954754024744034E-002,-7.598531246185303E-001,6.439686417579651E-001,7.023424655199051E-002,-3.954754024744034E-002,-7.598531246185303E-001,6.439686417579651E-001,
1.267300000000000E+009,8.491232246160507E-002,-5.309405177831650E-002,-7.375970482826233E-001,6.559526920318604E-001,8.491232246160507E-002,-5.309405177831650E-002,-7.375970482826233E-001,6.559526920318604E-001,
1.275666666666667E+009,9.269947558641434E-002,-7.392168790102005E-002,-7.009648084640503E-001,6.790341734886169E-001,9.269947558641434E-002,-7.392168790102005E-002,-7.009648084640503E-001,6.790341734886169E-001,
1.284033333333334E+009,8.858043700456619E-002,-9.731132537126541E-002,-6.935862898826599E-001,6.945961117744446E-001,8.858043700456619E-002,-9.731132537126541E-002,-6.935862898826599E-001,6.945961117744446E-001,
1.292400000000000E+009,7.413256913423538E-002,-1.167331263422966E-001,-6.823334097862244E-001,7.096959948539734E-001,7.413256913423538E-002,-1.167331263422966E-001,-6.823334097862244E-001,7.096959948539734E-001,
1.300766666666667E+009,5.334444716572762E-002,-1.251951009035111E-001,-6.586322784423828E-001,7.241770625114441E-001,5.334444716572762E-002,-1.251951009035111E-001,-6.586322784423828E-001,7.241770625114441E-001,
1.309133333333334E+009,2.855236083269119E-002,-1.237345784902573E-001,-6.487074494361877E-001,7.397799491882324E-001,2.855236083269119E-002,-1.237345784902573E-001,-6.487074494361877E-001,7.397799491882324E-001,
1.317500000000000E+009,1.320587191730738E-002,-1.129575297236443E-001,-6.244217157363892E-001,7.563413977622986E-001,1.320587191730738E-002,-1.129575297236443E-001,-6.244217157363892E-001,7.563413977622986E-001,
1.325866666666667E+009,5.096760112792254E-003,-9.385009109973908E-002,-6.097381114959717E-001,7.719632983207703E-001,5.096760112792254E-003,-9.385009109973908E-002,-6.097381114959717E-001,7.719632983207703E-001,
1.334233333333334E+009,9.126134216785431E-003,-7.742621749639511E-002,-5.817574858665466E-001,7.921894788742065E-001,9.126134216785431E-003,-7.742621749639511E-002,-5.817574858665466E-001,7.921894788742065E-001,
1.342600000000000E+009,1.963049732148647E-002,-6.960606575012207E-002,-5.610991120338440E-001,8.122105598449707E-001,1.963049732148647E-002,-6.960606575012207E-002,-5.610991120338440E-001,8.122105598449707E-001,
1.350966666666667E+009,3.460371866822243E-002,-7.223834097385407E-002,-5.293218493461609E-001,8.356926441192627E-001,3.460371866822243E-002,-7.223834097385407E-002,-5.293218493461609E-001,8.356926441192627E-001,
1.359333333333334E+009,4.763109609484673E-002,-8.576346933841705E-002,-5.190594792366028E-001,8.388800621032715E-001,4.763109609484673E-002,-8.576346933841705E-002,-5.190594792366028E-001,8.388800621032715E-001,
1.367700000000000E+009,4.644093662500382E-002,-1.070317253470421E-001,-4.988057315349579E-001,8.459352850914002E-001,4.644093662500382E-002,-1.070317253470421E-001,-4.988057315349579E-001,8.459352850914002E-001,
1.376066666666667E+009,3.778521344065666E-002,-1.261383593082428E-001,-4.829381406307221E-001,8.609194755554199E-001,3.778521344065666E-002,-1.261383593082428E-001,-4.829381406307221E-001,8.609194755554199E-001,
1.384433333333334E+009,1.734784431755543E-002,-1.434446871280670E-001,-4.577788710594177E-001,8.824792504310608E-001,1.734784431755543E-002,-1.434446871280670E-001,-4.577788710594177E-001,8.824792504310608E-001,
1.392800000000000E+009,-7.416496053338051E-003,-1.461383700370789E-001,-4.435847997665405E-001,8.748714327812195E-001,-7.416496053338051E-003,-1.461383700370789E-001,-4.435847997665405E-001,8.748714327812195E-001,
1.401166666666667E+009,-3.054105304181576E-002,-1.372288465499878E-001,-4.213059246540070E-001,8.917658329010010E-001,-3.054105304181576E-002,-1.372288465499878E-001,-4.213059246540070E-001,8.917658329010010E-001,
1.409533333333334E+009,-4.660176858305931E-002,-1.197569891810417E-001,-3.919765949249268E-001,9.033501148223877E-001,-4.660176858305931E-002,-1.197569891810417E-001,-3.919765949249268E-001,9.033501148223877E-001,
1.417900000000000E+009,-5.127834528684616E-002,-9.509463608264923E-002,-3.808737695217133E-001,9.001141190528870E-001,-5.127834528684616E-002,-9.509463608264923E-002,-3.808737695217133E-001,9.001141190528870E-001,
1.426266666666667E+009,-4.320831224322319E-002,-7.759958505630493E-002,-3.480319082736969E-001,9.256937503814697E-001,-4.320831224322319E-002,-7.759958505630493E-002,-3.480319082736969E-001,9.256937503814697E-001,
1.434633333333334E+009,-2.715624310076237E-002,-6.665749102830887E-002,-3.146686553955078E-001,9.358866214752197E-001,-2.715624310076237E-002,-6.665749102830887E-002,-3.146686553955078E-001,9.358866214752197E-001,
1.443000000000000E+009,-1.065849140286446E-002,-6.755305826663971E-002,-2.969775795936585E-001,9.402166604995728E-001,-1.065849140286446E-002,-6.755305826663971E-002,-2.969775795936585E-001,9.402166604995728E-001,
1.451366666666667E+009,2.093515591695905E-003,-7.983881235122681E-002,-2.626784443855286E-001,9.443634748458862E-001,2.093515591695905E-003,-7.983881235122681E-002,-2.626784443855286E-001,9.443634748458862E-001,
1.459733333333334E+009,5.495413206517696E-003,-1.017848476767540E-001,-2.446327954530716E-001,9.465438127517700E-001,5.495413206517696E-003,-1.017848476767540E-001,-2.446327954530716E-001,9.465438127517700E-001,
