% Version 1.00
%
%freq[Hz],re:Trc1_S11,im:Trc1_S11,re:Trc2_S21,im:Trc2_S21,re:Trc3_S11,im:Trc3_S11,re:Trc4_S21,im:Trc4_S21,
6.900000000000000E+008,-3.026559390127659E-002,5.762831121683121E-002,-4.955081641674042E-001,-8.402898907661438E-001,-3.026559390127659E-002,5.762831121683121E-002,-4.955081641674042E-001,-8.402898907661438E-001,
6.983666666666666E+008,-1.992009580135346E-002,5.935125797986984E-002,-5.254830121994019E-001,-8.384114503860474E-001,-1.992009580135346E-002,5.935125797986984E-002,-5.254830121994019E-001,-8.384114503860474E-001,
7.067333333333334E+008,-1.304595917463303E-002,5.401720106601715E-002,-5.669215917587280E-001,-7.750412225723267E-001,-1.304595917463303E-002,5.401720106601715E-002,-5.669215917587280E-001,-7.750412225723267E-001,
7.151000000000000E+008,-1.124891079962254E-002,4.694199562072754E-002,-5.887471437454224E-001,-7.925841212272644E-001,-1.124891079962254E-002,4.694199562072754E-002,-5.887471437454224E-001,-7.925841212272644E-001,
7.234666666666666E+008,-1.334784831851721E-002,4.219069704413414E-002,-5.990157127380371E-001,-7.778856754302979E-001,-1.334784831851721E-002,4.219069704413414E-002,-5.990157127380371E-001,-7.778856754302979E-001,
7.318333333333334E+008,-1.916282624006271E-002,4.040091112256050E-002,-6.198615431785584E-001,-7.770275473594666E-001,-1.916282624006271E-002,4.040091112256050E-002,-6.198615431785584E-001,-7.770275473594666E-001,
7.402000000000000E+008,-2.524310164153576E-002,4.080483317375183E-002,-6.583033800125122E-001,-7.571782469749451E-001,-2.524310164153576E-002,4.080483317375183E-002,-6.583033800125122E-001,-7.571782469749451E-001,
7.485666666666666E+008,-3.116164542734623E-002,4.776914790272713E-002,-6.575103998184204E-001,-7.538377046585083E-001,-3.116164542734623E-002,4.776914790272713E-002,-6.575103998184204E-001,-7.538377046585083E-001,
7.569333333333334E+008,-3.121211007237434E-002,5.553165450692177E-002,-6.647086143493652E-001,-7.400217056274414E-001,-3.121211007237434E-002,5.553165450692177E-002,-6.647086143493652E-001,-7.400217056274414E-001,
7.653000000000000E+008,-2.516608498990536E-002,6.304532289505005E-002,-6.905297040939331E-001,-7.196114659309387E-001,-2.516608498990536E-002,6.304532289505005E-002,-6.905297040939331E-001,-7.196114659309387E-001,
7.736666666666666E+008,-1.739382557570934E-002,6.962391734123230E-002,-7.178946733474731E-001,-6.864038705825806E-001,-1.739382557570934E-002,6.962391734123230E-002,-7.178946733474731E-001,-6.864038705825806E-001,
7.820333333333334E+008,-7.223823573440313E-003,7.239831984043121E-002,-7.272216677665710E-001,-6.724977493286133E-001,-7.223823573440313E-003,7.239831984043121E-002,-7.272216677665710E-001,-6.724977493286133E-001,
7.904000000000000E+008,4.117439035326242E-003,7.104306668043137E-002,-7.301300764083862E-001,-6.526615023612976E-001,4.117439035326242E-003,7.104306668043137E-002,-7.301300764083862E-001,-6.526615023612976E-001,
7.987666666666666E+008,9.334303438663483E-003,6.538670510053635E-002,-7.642554044723511E-001,-6.298453807830811E-001,9.334303438663483E-003,6.538670510053635E-002,-7.642554044723511E-001,-6.298453807830811E-001,
8.071333333333334E+008,1.304982416331768E-002,6.037677824497223E-002,-7.691075801849365E-001,-6.211255788803101E-001,1.304982416331768E-002,6.037677824497223E-002,-7.691075801849365E-001,-6.211255788803101E-001,
8.155000000000000E+008,8.543352596461773E-003,5.431135371327400E-002,-7.951799631118774E-001,-5.987367033958435E-001,8.543352596461773E-003,5.431135371327400E-002,-7.951799631118774E-001,-5.987367033958435E-001,
8.238666666666666E+008,5.619069561362267E-003,5.033710598945618E-002,-7.990015149116516E-001,-5.691102743148804E-001,5.619069561362267E-003,5.033710598945618E-002,-7.990015149116516E-001,-5.691102743148804E-001,
8.322333333333334E+008,-5.327175604179502E-004,5.084520205855370E-002,-8.170003890991211E-001,-5.480680465698242E-001,-5.327175604179502E-004,5.084520205855370E-002,-8.170003890991211E-001,-5.480680465698242E-001,
8.406000000000000E+008,-5.005580373108387E-003,5.474477261304855E-002,-8.270337581634522E-001,-5.371302962303162E-001,-5.005580373108387E-003,5.474477261304855E-002,-8.270337581634522E-001,-5.371302962303162E-001,
8.489666666666668E+008,-8.186798542737961E-003,6.211284548044205E-002,-8.407814502716065E-001,-5.241611003875732E-001,-8.186798542737961E-003,6.211284548044205E-002,-8.407814502716065E-001,-5.241611003875732E-001,
8.573333333333334E+008,-4.713989794254303E-003,6.986889243125916E-002,-8.557015061378479E-001,-4.817315936088562E-001,-4.713989794254303E-003,6.986889243125916E-002,-8.557015061378479E-001,-4.817315936088562E-001,
8.657000000000000E+008,4.943101201206446E-003,7.624666392803192E-002,-8.728302121162415E-001,-4.563686549663544E-001,4.943101201206446E-003,7.624666392803192E-002,-8.728302121162415E-001,-4.563686549663544E-001,
8.740666666666668E+008,1.363361626863480E-002,7.888363301753998E-002,-8.694373369216919E-001,-4.498518109321594E-001,1.363361626863480E-002,7.888363301753998E-002,-8.694373369216919E-001,-4.498518109321594E-001,
8.824333333333334E+008,2.473930828273296E-002,7.765799760818481E-002,-8.893345594406128E-001,-4.327189326286316E-001,2.473930828273296E-002,7.765799760818481E-002,-8.893345594406128E-001,-4.327189326286316E-001,
8.908000000000000E+008,3.451926633715630E-002,7.233874499797821E-002,-8.885267972946167E-001,-4.018979370594025E-001,3.451926633715630E-002,7.233874499797821E-002,-8.885267972946167E-001,-4.018979370594025E-001,
8.991666666666668E+008,3.892201930284500E-002,6.518793851137161E-002,-9.041792750358582E-001,-3.726246058940888E-001,3.892201930284500E-002,6.518793851137161E-002,-9.041792750358582E-001,-3.726246058940888E-001,
9.075333333333334E+008,4.032054170966148E-002,5.831514671444893E-002,-9.333032369613648E-001,-3.565609157085419E-001,4.032054170966148E-002,5.831514671444893E-002,-9.333032369613648E-001,-3.565609157085419E-001,
9.159000000000000E+008,3.860966488718987E-002,5.515593662858009E-002,-9.385479092597961E-001,-3.268353044986725E-001,3.860966488718987E-002,5.515593662858009E-002,-9.385479092597961E-001,-3.268353044986725E-001,
9.242666666666668E+008,3.389493376016617E-002,5.179290473461151E-002,-9.466072320938110E-001,-3.088902831077576E-001,3.389493376016617E-002,5.179290473461151E-002,-9.466072320938110E-001,-3.088902831077576E-001,
9.326333333333334E+008,2.724639698863030E-002,5.242046341300011E-002,-9.661259055137634E-001,-2.894472777843475E-001,2.724639698863030E-002,5.242046341300011E-002,-9.661259055137634E-001,-2.894472777843475E-001,
9.410000000000000E+008,2.446116134524345E-002,5.666128173470497E-002,-9.589593410491943E-001,-2.551146745681763E-001,2.446116134524345E-002,5.666128173470497E-002,-9.589593410491943E-001,-2.551146745681763E-001,
9.493666666666668E+008,2.488457038998604E-002,6.251873075962067E-002,-9.560900330543518E-001,-2.361760884523392E-001,2.488457038998604E-002,6.251873075962067E-002,-9.560900330543518E-001,-2.361760884523392E-001,
9.577333333333334E+008,2.803821489214897E-002,7.027074694633484E-002,-9.722847342491150E-001,-2.105906456708908E-001,2.803821489214897E-002,7.027074694633484E-002,-9.722847342491150E-001,-2.105906456708908E-001,
9.661000000000000E+008,3.801338002085686E-002,7.639539986848831E-002,-9.673525094985962E-001,-1.890016496181488E-001,3.801338002085686E-002,7.639539986848831E-002,-9.673525094985962E-001,-1.890016496181488E-001,
9.744666666666668E+008,4.678411036729813E-002,7.511157542467117E-002,-9.726647734642029E-001,-1.626012325286865E-001,4.678411036729813E-002,7.511157542467117E-002,-9.726647734642029E-001,-1.626012325286865E-001,
9.828333333333334E+008,6.134973466396332E-002,7.095552980899811E-002,-9.778143763542175E-001,-1.424590200185776E-001,6.134973466396332E-002,7.095552980899811E-002,-9.778143763542175E-001,-1.424590200185776E-001,
9.912000000000000E+008,6.918435543775559E-002,6.425081193447113E-002,-9.746702313423157E-001,-1.161823645234108E-001,6.918435543775559E-002,6.425081193447113E-002,-9.746702313423157E-001,-1.161823645234108E-001,
9.995666666666668E+008,7.583029568195343E-002,5.368677154183388E-002,-9.899787902832031E-001,-7.936242967844009E-002,7.583029568195343E-002,5.368677154183388E-002,-9.899787902832031E-001,-7.936242967844009E-002,
1.007933333333333E+009,7.658940553665161E-002,4.427424445748329E-002,-9.913961291313171E-001,-6.572329252958298E-002,7.658940553665161E-002,4.427424445748329E-002,-9.913961291313171E-001,-6.572329252958298E-002,
1.016300000000000E+009,7.148313522338867E-002,3.754496946930885E-002,-9.924048185348511E-001,-3.782011568546295E-002,7.148313522338867E-002,3.754496946930885E-002,-9.924048185348511E-001,-3.782011568546295E-002,
1.024666666666667E+009,6.485483795404434E-002,3.112990222871304E-002,-9.935034513473511E-001,-5.217634141445160E-003,6.485483795404434E-002,3.112990222871304E-002,-9.935034513473511E-001,-5.217634141445160E-003,
1.033033333333333E+009,5.839034542441368E-002,3.348507359623909E-002,-9.918888807296753E-001,1.263458002358675E-002,5.839034542441368E-002,3.348507359623909E-002,-9.918888807296753E-001,1.263458002358675E-002,
1.041400000000000E+009,5.310815945267677E-002,3.801712393760681E-002,-9.802246689796448E-001,4.627108946442604E-002,5.310815945267677E-002,3.801712393760681E-002,-9.802246689796448E-001,4.627108946442604E-002,
1.049766666666667E+009,5.335648730397224E-002,4.538942873477936E-002,-9.903348088264465E-001,7.100468873977661E-002,5.335648730397224E-002,4.538942873477936E-002,-9.903348088264465E-001,7.100468873977661E-002,
1.058133333333333E+009,5.963921546936035E-002,5.113884434103966E-002,-9.844457507133484E-001,8.971953392028809E-002,5.963921546936035E-002,5.113884434103966E-002,-9.844457507133484E-001,8.971953392028809E-002,
1.066500000000000E+009,7.168617099523544E-002,5.355216562747955E-002,-9.895048737525940E-001,1.290586739778519E-001,7.168617099523544E-002,5.355216562747955E-002,-9.895048737525940E-001,1.290586739778519E-001,
1.074866666666667E+009,8.222554624080658E-002,5.022783577442169E-002,-9.722332358360291E-001,1.473758369684219E-001,8.222554624080658E-002,5.022783577442169E-002,-9.722332358360291E-001,1.473758369684219E-001,
1.083233333333334E+009,9.352689981460571E-002,3.811286017298698E-002,-9.704192876815796E-001,1.672733873128891E-001,9.352689981460571E-002,3.811286017298698E-002,-9.704192876815796E-001,1.672733873128891E-001,
1.091600000000000E+009,1.001532822847366E-001,2.679025754332542E-002,-9.622953534126282E-001,1.899905502796173E-001,1.001532822847366E-001,2.679025754332542E-002,-9.622953534126282E-001,1.899905502796173E-001,
1.099966666666667E+009,1.018858999013901E-001,1.161201670765877E-002,-9.649056196212769E-001,2.277239412069321E-001,1.018858999013901E-001,1.161201670765877E-002,-9.649056196212769E-001,2.277239412069321E-001,
1.108333333333334E+009,9.324532002210617E-002,-8.238579539465718E-006,-9.425560235977173E-001,2.327518612146378E-001,9.324532002210617E-002,-8.238579539465718E-006,-9.425560235977173E-001,2.327518612146378E-001,
1.116700000000000E+009,7.927247881889343E-002,-1.797222532331944E-003,-9.439103603363037E-001,2.724651098251343E-001,7.927247881889343E-002,-1.797222532331944E-003,-9.439103603363037E-001,2.724651098251343E-001,
1.125066666666667E+009,6.818850338459015E-002,-1.634362619370222E-003,-9.481611251831055E-001,2.846357226371765E-001,6.818850338459015E-002,-1.634362619370222E-003,-9.481611251831055E-001,2.846357226371765E-001,
1.133433333333334E+009,5.937341973185539E-002,9.303516708314419E-003,-9.460577964782715E-001,3.122563958168030E-001,5.937341973185539E-002,9.303516708314419E-003,-9.460577964782715E-001,3.122563958168030E-001,
1.141800000000000E+009,5.859092250466347E-002,1.973911002278328E-002,-9.190883636474609E-001,3.343751132488251E-001,5.859092250466347E-002,1.973911002278328E-002,-9.190883636474609E-001,3.343751132488251E-001,
1.150166666666667E+009,6.618410348892212E-002,3.236597031354904E-002,-9.005638360977173E-001,3.630822896957398E-001,6.618410348892212E-002,3.236597031354904E-002,-9.005638360977173E-001,3.630822896957398E-001,
1.158533333333334E+009,7.999139279127121E-002,3.860139101743698E-002,-9.030055999755859E-001,3.893966376781464E-001,7.999139279127121E-002,3.860139101743698E-002,-9.030055999755859E-001,3.893966376781464E-001,
1.166900000000000E+009,9.975452721118927E-002,3.470120951533318E-002,-8.921241164207459E-001,4.212159216403961E-001,9.975452721118927E-002,3.470120951533318E-002,-8.921241164207459E-001,4.212159216403961E-001,
1.175266666666667E+009,1.138280704617500E-001,2.041301690042019E-002,-8.817655444145203E-001,4.250006079673767E-001,1.138280704617500E-001,2.041301690042019E-002,-8.817655444145203E-001,4.250006079673767E-001,
1.183633333333334E+009,1.249094009399414E-001,1.997065031901002E-003,-8.697635531425476E-001,4.631949961185455E-001,1.249094009399414E-001,1.997065031901002E-003,-8.697635531425476E-001,4.631949961185455E-001,
1.192000000000000E+009,1.249494031071663E-001,-2.012978494167328E-002,-8.602938652038574E-001,4.699251055717468E-001,1.249494031071663E-001,-2.012978494167328E-002,-8.602938652038574E-001,4.699251055717468E-001,
1.200366666666667E+009,1.138668879866600E-001,-3.690626472234726E-002,-8.519196510314941E-001,4.980747699737549E-001,1.138668879866600E-001,-3.690626472234726E-002,-8.519196510314941E-001,4.980747699737549E-001,
1.208733333333334E+009,9.803280234336853E-002,-4.756123945116997E-002,-8.482446670532227E-001,5.160981416702271E-001,9.803280234336853E-002,-4.756123945116997E-002,-8.482446670532227E-001,5.160981416702271E-001,
1.217100000000000E+009,7.960166037082672E-002,-4.538325592875481E-002,-8.329641222953796E-001,5.341459512710571E-001,7.960166037082672E-002,-4.538325592875481E-002,-8.329641222953796E-001,5.341459512710571E-001,
1.225466666666667E+009,6.847257167100906E-002,-3.888469934463501E-002,-8.061734437942505E-001,5.650089383125305E-001,6.847257167100906E-002,-3.888469934463501E-002,-8.061734437942505E-001,5.650089383125305E-001,
1.233833333333334E+009,6.141516193747520E-002,-2.289295382797718E-002,-7.897026538848877E-001,5.833466053009033E-001,6.141516193747520E-002,-2.289295382797718E-002,-7.897026538848877E-001,5.833466053009033E-001,
1.242200000000000E+009,6.602927297353745E-002,-8.002528920769692E-003,-7.751880288124085E-001,5.939348936080933E-001,6.602927297353745E-002,-8.002528920769692E-003,-7.751880288124085E-001,5.939348936080933E-001,
1.250566666666667E+009,8.053182810544968E-002,-2.814412291627377E-004,-7.429885864257813E-001,6.213428378105164E-001,8.053182810544968E-002,-2.814412291627377E-004,-7.429885864257813E-001,6.213428378105164E-001,
1.258933333333334E+009,9.803184866905212E-002,-3.699135733768344E-003,-7.557752132415772E-001,6.436401605606079E-001,9.803184866905212E-002,-3.699135733768344E-003,-7.557752132415772E-001,6.436401605606079E-001,
1.267300000000000E+009,1.137406453490257E-001,-1.780923642218113E-002,-7.326723337173462E-001,6.564491391181946E-001,1.137406453490257E-001,-1.780923642218113E-002,-7.326723337173462E-001,6.564491391181946E-001,
1.275666666666667E+009,1.228256076574326E-001,-3.835953399538994E-002,-7.000011801719666E-001,6.774311661720276E-001,1.228256076574326E-001,-3.835953399538994E-002,-7.000011801719666E-001,6.774311661720276E-001,
1.284033333333334E+009,1.203493103384972E-001,-6.221181526780129E-002,-6.938148736953735E-001,6.947143673896790E-001,1.203493103384972E-001,-6.221181526780129E-002,-6.938148736953735E-001,6.947143673896790E-001,
1.292400000000000E+009,1.081317588686943E-001,-8.226277679204941E-002,-6.825720667839050E-001,7.081161737442017E-001,1.081317588686943E-001,-8.226277679204941E-002,-6.825720667839050E-001,7.081161737442017E-001,
1.300766666666667E+009,8.777308464050293E-002,-9.161996096372604E-002,-6.579647064208984E-001,7.256160974502564E-001,8.777308464050293E-002,-9.161996096372604E-002,-6.579647064208984E-001,7.256160974502564E-001,
1.309133333333334E+009,6.546100974082947E-002,-9.163095057010651E-002,-6.472727060317993E-001,7.438482642173767E-001,6.546100974082947E-002,-9.163095057010651E-002,-6.472727060317993E-001,7.438482642173767E-001,
1.317500000000000E+009,5.167112872004509E-002,-8.138105273246765E-002,-6.239967346191406E-001,7.586210966110230E-001,5.167112872004509E-002,-8.138105273246765E-002,-6.239967346191406E-001,7.586210966110230E-001,
1.325866666666667E+009,4.471190273761749E-002,-6.307633966207504E-002,-6.091011762619019E-001,7.733060717582703E-001,4.471190273761749E-002,-6.307633966207504E-002,-6.091011762619019E-001,7.733060717582703E-001,
1.334233333333334E+009,5.058999732136726E-002,-4.763768240809441E-002,-5.790921449661255E-001,7.954253554344177E-001,5.058999732136726E-002,-4.763768240809441E-002,-5.790921449661255E-001,7.954253554344177E-001,
1.342600000000000E+009,6.306737661361694E-002,-4.133412614464760E-002,-5.589167475700378E-001,8.146424293518066E-001,6.306737661361694E-002,-4.133412614464760E-002,-5.589167475700378E-001,8.146424293518066E-001,
1.350966666666667E+009,7.939937710762024E-002,-4.553814977407455E-002,-5.247200131416321E-001,8.413240909576416E-001,7.939937710762024E-002,-4.553814977407455E-002,-5.247200131416321E-001,8.413240909576416E-001,
1.359333333333334E+009,9.381517767906189E-002,-5.952542275190353E-002,-5.145259499549866E-001,8.411456942558289E-001,9.381517767906189E-002,-5.952542275190353E-002,-5.145259499549866E-001,8.411456942558289E-001,
1.367700000000000E+009,9.385869652032852E-002,-8.170679956674576E-002,-4.966085851192474E-001,8.446539640426636E-001,9.385869652032852E-002,-8.170679956674576E-002,-4.966085851192474E-001,8.446539640426636E-001,
1.376066666666667E+009,8.670504391193390E-002,-1.023872047662735E-001,-4.828189015388489E-001,8.618854284286499E-001,8.670504391193390E-002,-1.023872047662735E-001,-4.828189015388489E-001,8.618854284286499E-001,
1.384433333333334E+009,6.758204102516174E-002,-1.207181960344315E-001,-4.566941261291504E-001,8.818277120590210E-001,6.758204102516174E-002,-1.207181960344315E-001,-4.566941261291504E-001,8.818277120590210E-001,
1.392800000000000E+009,4.395392909646034E-002,-1.251384317874908E-001,-4.420024156570435E-001,8.765861988067627E-001,4.395392909646034E-002,-1.251384317874908E-001,-4.420024156570435E-001,8.765861988067627E-001,
1.401166666666667E+009,2.275742776691914E-002,-1.175109520554543E-001,-4.213806986808777E-001,8.933969736099243E-001,2.275742776691914E-002,-1.175109520554543E-001,-4.213806986808777E-001,8.933969736099243E-001,
1.409533333333334E+009,7.000900804996491E-003,-1.017588675022125E-001,-3.899780511856079E-001,9.088573455810547E-001,7.000900804996491E-003,-1.017588675022125E-001,-3.899780511856079E-001,9.088573455810547E-001,
1.417900000000000E+009,3.995223436504602E-003,-7.900950312614441E-002,-3.747705817222595E-001,9.035181999206543E-001,3.995223436504602E-003,-7.900950312614441E-002,-3.747705817222595E-001,9.035181999206543E-001,
1.426266666666667E+009,1.351530756801367E-002,-6.385333091020584E-002,-3.422920405864716E-001,9.271278381347656E-001,1.351530756801367E-002,-6.385333091020584E-002,-3.422920405864716E-001,9.271278381347656E-001,
1.434633333333334E+009,3.025349415838718E-002,-5.409594625234604E-002,-3.097058534622192E-001,9.371324777603149E-001,3.025349415838718E-002,-5.409594625234604E-002,-3.097058534622192E-001,9.371324777603149E-001,
1.443000000000000E+009,4.819910600781441E-002,-5.748612061142921E-002,-2.915843725204468E-001,9.411467313766480E-001,4.819910600781441E-002,-5.748612061142921E-002,-2.915843725204468E-001,9.411467313766480E-001,
1.451366666666667E+009,6.158581003546715E-002,-7.120198756456375E-002,-2.580396533012390E-001,9.419309496879578E-001,6.158581003546715E-002,-7.120198756456375E-002,-2.580396533012390E-001,9.419309496879578E-001,
1.459733333333334E+009,6.637412309646606E-002,-9.525702893733978E-002,-2.436645627021790E-001,9.453622102737427E-001,6.637412309646606E-002,-9.525702893733978E-002,-2.436645627021790E-001,9.453622102737427E-001,
