% Version 1.00
%
%freq[Hz],re:Trc1_S11,im:Trc1_S11,re:Trc2_S21,im:Trc2_S21,re:Trc3_S11,im:Trc3_S11,re:Trc4_S21,im:Trc4_S21,
6.900000000000000E+008,-2.999692782759666E-002,5.831399932503700E-002,-5.013659000396729E-001,-8.464294672012329E-001,-2.999692782759666E-002,5.831399932503700E-002,-5.013659000396729E-001,-8.464294672012329E-001,
6.983666666666666E+008,-1.976368203759193E-002,5.952527374029160E-002,-5.251703858375549E-001,-8.402374386787415E-001,-1.976368203759193E-002,5.952527374029160E-002,-5.251703858375549E-001,-8.402374386787415E-001,
7.067333333333334E+008,-1.265764050185680E-002,5.462271720170975E-002,-5.693831443786621E-001,-7.768176198005676E-001,-1.265764050185680E-002,5.462271720170975E-002,-5.693831443786621E-001,-7.768176198005676E-001,
7.151000000000000E+008,-1.113787572830916E-002,4.717251658439636E-002,-5.888791680335999E-001,-7.904691696166992E-001,-1.113787572830916E-002,4.717251658439636E-002,-5.888791680335999E-001,-7.904691696166992E-001,
7.234666666666666E+008,-1.338510774075985E-002,4.210155457258225E-002,-5.991014242172241E-001,-7.775474786758423E-001,-1.338510774075985E-002,4.210155457258225E-002,-5.991014242172241E-001,-7.775474786758423E-001,
7.318333333333334E+008,-1.943710073828697E-002,4.034099727869034E-002,-6.158552765846252E-001,-7.763934731483460E-001,-1.943710073828697E-002,4.034099727869034E-002,-6.158552765846252E-001,-7.763934731483460E-001,
7.402000000000000E+008,-2.532697841525078E-002,4.110172390937805E-002,-6.606062054634094E-001,-7.578232884407044E-001,-2.532697841525078E-002,4.110172390937805E-002,-6.606062054634094E-001,-7.578232884407044E-001,
7.485666666666666E+008,-3.106413595378399E-002,4.768323898315430E-002,-6.587940454483032E-001,-7.537013888359070E-001,-3.106413595378399E-002,4.768323898315430E-002,-6.587940454483032E-001,-7.537013888359070E-001,
7.569333333333334E+008,-3.123207204043865E-002,5.584817007184029E-002,-6.660720109939575E-001,-7.329721450805664E-001,-3.123207204043865E-002,5.584817007184029E-002,-6.660720109939575E-001,-7.329721450805664E-001,
7.653000000000000E+008,-2.525357343256474E-002,6.340325623750687E-002,-6.862941980361939E-001,-7.126793861389160E-001,-2.525357343256474E-002,6.340325623750687E-002,-6.862941980361939E-001,-7.126793861389160E-001,
7.736666666666666E+008,-1.756890490651131E-002,6.957135349512100E-002,-7.171292901039124E-001,-6.869860887527466E-001,-1.756890490651131E-002,6.957135349512100E-002,-7.171292901039124E-001,-6.869860887527466E-001,
7.820333333333334E+008,-7.352392654865980E-003,7.210029661655426E-002,-7.277812957763672E-001,-6.745049357414246E-001,-7.352392654865980E-003,7.210029661655426E-002,-7.277812957763672E-001,-6.745049357414246E-001,
7.904000000000000E+008,4.041222855448723E-003,7.111506909132004E-002,-7.334498763084412E-001,-6.525780558586121E-001,4.041222855448723E-003,7.111506909132004E-002,-7.334498763084412E-001,-6.525780558586121E-001,
7.987666666666666E+008,9.502751752734184E-003,6.540941447019577E-002,-7.665296792984009E-001,-6.310917735099793E-001,9.502751752734184E-003,6.540941447019577E-002,-7.665296792984009E-001,-6.310917735099793E-001,
8.071333333333334E+008,1.339506451040506E-002,6.019592657685280E-002,-7.725737094879150E-001,-6.205075979232788E-001,1.339506451040506E-002,6.019592657685280E-002,-7.725737094879150E-001,-6.205075979232788E-001,
8.155000000000000E+008,8.565935306251049E-003,5.437044426798821E-002,-7.952660322189331E-001,-5.993477702140808E-001,8.565935306251049E-003,5.437044426798821E-002,-7.952660322189331E-001,-5.993477702140808E-001,
8.238666666666666E+008,5.767627619206905E-003,5.014663189649582E-002,-7.964102625846863E-001,-5.691911578178406E-001,5.767627619206905E-003,5.014663189649582E-002,-7.964102625846863E-001,-5.691911578178406E-001,
8.322333333333334E+008,-5.825170665048063E-004,5.091539770364761E-002,-8.203507065773010E-001,-5.498219132423401E-001,-5.825170665048063E-004,5.091539770364761E-002,-8.203507065773010E-001,-5.498219132423401E-001,
8.406000000000000E+008,-5.121432710438967E-003,5.473295226693153E-002,-8.281642198562622E-001,-5.367735624313355E-001,-5.121432710438967E-003,5.473295226693153E-002,-8.281642198562622E-001,-5.367735624313355E-001,
8.489666666666668E+008,-7.551311049610376E-003,6.219045072793961E-002,-8.407725095748901E-001,-5.209287405014038E-001,-7.551311049610376E-003,6.219045072793961E-002,-8.407725095748901E-001,-5.209287405014038E-001,
8.573333333333334E+008,-4.896078724414110E-003,6.970822811126709E-002,-8.573467731475830E-001,-4.795338511466980E-001,-4.896078724414110E-003,6.970822811126709E-002,-8.573467731475830E-001,-4.795338511466980E-001,
8.657000000000000E+008,5.096069537103176E-003,7.634872943162918E-002,-8.733898997306824E-001,-4.604593515396118E-001,5.096069537103176E-003,7.634872943162918E-002,-8.733898997306824E-001,-4.604593515396118E-001,
8.740666666666668E+008,1.389244385063648E-002,7.851643115282059E-002,-8.708259463310242E-001,-4.473572969436646E-001,1.389244385063648E-002,7.851643115282059E-002,-8.708259463310242E-001,-4.473572969436646E-001,
8.824333333333334E+008,2.472198940813541E-002,7.758960127830505E-002,-8.886840343475342E-001,-4.328802824020386E-001,2.472198940813541E-002,7.758960127830505E-002,-8.886840343475342E-001,-4.328802824020386E-001,
8.908000000000000E+008,3.476907685399056E-002,7.240846008062363E-002,-8.892893791198731E-001,-4.005887806415558E-001,3.476907685399056E-002,7.240846008062363E-002,-8.892893791198731E-001,-4.005887806415558E-001,
8.991666666666668E+008,3.910386562347412E-002,6.517329066991806E-002,-9.054833650588989E-001,-3.738696575164795E-001,3.910386562347412E-002,6.517329066991806E-002,-9.054833650588989E-001,-3.738696575164795E-001,
9.075333333333334E+008,4.046974331140518E-002,5.815479904413223E-002,-9.335891008377075E-001,-3.541749715805054E-001,4.046974331140518E-002,5.815479904413223E-002,-9.335891008377075E-001,-3.541749715805054E-001,
9.159000000000000E+008,3.844389691948891E-002,5.509084835648537E-002,-9.396169185638428E-001,-3.253760337829590E-001,3.844389691948891E-002,5.509084835648537E-002,-9.396169185638428E-001,-3.253760337829590E-001,
9.242666666666668E+008,3.402734175324440E-002,5.166560411453247E-002,-9.447216391563416E-001,-3.116945326328278E-001,3.402734175324440E-002,5.166560411453247E-002,-9.447216391563416E-001,-3.116945326328278E-001,
9.326333333333334E+008,2.723120711743832E-002,5.224090814590454E-002,-9.649166464805603E-001,-2.869668900966644E-001,2.723120711743832E-002,5.224090814590454E-002,-9.649166464805603E-001,-2.869668900966644E-001,
9.410000000000000E+008,2.454498596489430E-002,5.639640986919403E-002,-9.589434862136841E-001,-2.535558640956879E-001,2.454498596489430E-002,5.639640986919403E-002,-9.589434862136841E-001,-2.535558640956879E-001,
9.493666666666668E+008,2.467668987810612E-002,6.232543289661408E-002,-9.560295343399048E-001,-2.355553060770035E-001,2.467668987810612E-002,6.232543289661408E-002,-9.560295343399048E-001,-2.355553060770035E-001,
9.577333333333334E+008,2.811156585812569E-002,7.018774002790451E-002,-9.718036651611328E-001,-2.115557789802551E-001,2.811156585812569E-002,7.018774002790451E-002,-9.718036651611328E-001,-2.115557789802551E-001,
9.661000000000000E+008,3.825522214174271E-002,7.612230628728867E-002,-9.700376391410828E-001,-1.874722689390183E-001,3.825522214174271E-002,7.612230628728867E-002,-9.700376391410828E-001,-1.874722689390183E-001,
9.744666666666668E+008,4.703400284051895E-002,7.522726804018021E-002,-9.742924571037293E-001,-1.637769639492035E-001,4.703400284051895E-002,7.522726804018021E-002,-9.742924571037293E-001,-1.637769639492035E-001,
9.828333333333334E+008,6.136300787329674E-002,7.111515104770660E-002,-9.774890542030335E-001,-1.426800042390823E-001,6.136300787329674E-002,7.111515104770660E-002,-9.774890542030335E-001,-1.426800042390823E-001,
9.912000000000000E+008,6.955114752054215E-002,6.398060917854309E-002,-9.760811328887940E-001,-1.152794584631920E-001,6.955114752054215E-002,6.398060917854309E-002,-9.760811328887940E-001,-1.152794584631920E-001,
9.995666666666668E+008,7.598502933979034E-002,5.359525606036186E-002,-9.906091094017029E-001,-7.973288744688034E-002,7.598502933979034E-002,5.359525606036186E-002,-9.906091094017029E-001,-7.973288744688034E-002,
1.007933333333333E+009,7.654478400945664E-002,4.385706409811974E-002,-9.893873333930969E-001,-6.420110911130905E-002,7.654478400945664E-002,4.385706409811974E-002,-9.893873333930969E-001,-6.420110911130905E-002,
1.016300000000000E+009,7.132522761821747E-002,3.728040307760239E-002,-9.923335909843445E-001,-3.715068474411964E-002,7.132522761821747E-002,3.728040307760239E-002,-9.923335909843445E-001,-3.715068474411964E-002,
1.024666666666667E+009,6.462446600198746E-002,3.079171478748322E-002,-9.913004636764526E-001,-4.348950926214457E-003,6.462446600198746E-002,3.079171478748322E-002,-9.913004636764526E-001,-4.348950926214457E-003,
1.033033333333333E+009,5.843327939510346E-002,3.298555687069893E-002,-9.909536838531494E-001,1.419989392161369E-002,5.843327939510346E-002,3.298555687069893E-002,-9.909536838531494E-001,1.419989392161369E-002,
1.041400000000000E+009,5.307675898075104E-002,3.814212977886200E-002,-9.758489131927490E-001,5.410000309348106E-002,5.307675898075104E-002,3.814212977886200E-002,-9.758489131927490E-001,5.410000309348106E-002,
1.049766666666667E+009,5.313096567988396E-002,4.543351754546166E-002,-9.897233843803406E-001,7.303521037101746E-002,5.313096567988396E-002,4.543351754546166E-002,-9.897233843803406E-001,7.303521037101746E-002,
1.058133333333333E+009,5.948394909501076E-002,5.087168142199516E-002,-9.814540147781372E-001,9.132684767246246E-002,5.948394909501076E-002,5.087168142199516E-002,-9.814540147781372E-001,9.132684767246246E-002,
1.066500000000000E+009,7.144381105899811E-002,5.320450663566589E-002,-9.883621335029602E-001,1.308773308992386E-001,7.144381105899811E-002,5.320450663566589E-002,-9.883621335029602E-001,1.308773308992386E-001,
1.074866666666667E+009,8.198520541191101E-002,5.013624578714371E-002,-9.705950021743774E-001,1.469952762126923E-001,8.198520541191101E-002,5.013624578714371E-002,-9.705950021743774E-001,1.469952762126923E-001,
1.083233333333334E+009,9.335055202245712E-002,3.736290335655212E-002,-9.681579470634460E-001,1.691280752420425E-001,9.335055202245712E-002,3.736290335655212E-002,-9.681579470634460E-001,1.691280752420425E-001,
1.091600000000000E+009,9.989353269338608E-002,2.625519409775734E-002,-9.589557051658630E-001,1.900121718645096E-001,9.989353269338608E-002,2.625519409775734E-002,-9.589557051658630E-001,1.900121718645096E-001,
1.099966666666667E+009,1.017057970166206E-001,1.071478798985481E-002,-9.617845416069031E-001,2.285784929990768E-001,1.017057970166206E-001,1.071478798985481E-002,-9.617845416069031E-001,2.285784929990768E-001,
1.108333333333334E+009,9.289772063493729E-002,-4.366503562778235E-004,-9.407212734222412E-001,2.319661378860474E-001,9.289772063493729E-002,-4.366503562778235E-004,-9.407212734222412E-001,2.319661378860474E-001,
1.116700000000000E+009,7.942119985818863E-002,-2.157630631700158E-003,-9.407161474227905E-001,2.769156098365784E-001,7.942119985818863E-002,-2.157630631700158E-003,-9.407161474227905E-001,2.769156098365784E-001,
1.125066666666667E+009,6.766945123672485E-002,-2.012406010180712E-003,-9.449607133865356E-001,2.873060703277588E-001,6.766945123672485E-002,-2.012406010180712E-003,-9.449607133865356E-001,2.873060703277588E-001,
1.133433333333334E+009,5.912492796778679E-002,8.967060595750809E-003,-9.461052417755127E-001,3.125270605087280E-001,5.912492796778679E-002,8.967060595750809E-003,-9.461052417755127E-001,3.125270605087280E-001,
1.141800000000000E+009,5.874029919505119E-002,1.935045421123505E-002,-9.181017875671387E-001,3.337870538234711E-001,5.874029919505119E-002,1.935045421123505E-002,-9.181017875671387E-001,3.337870538234711E-001,
1.150166666666667E+009,6.600279361009598E-002,3.249436989426613E-002,-8.989850282669067E-001,3.640901446342468E-001,6.600279361009598E-002,3.249436989426613E-002,-8.989850282669067E-001,3.640901446342468E-001,
1.158533333333334E+009,8.032743632793427E-002,3.797623142600060E-002,-9.004676342010498E-001,3.883046805858612E-001,8.032743632793427E-002,3.797623142600060E-002,-9.004676342010498E-001,3.883046805858612E-001,
1.166900000000000E+009,9.944647550582886E-002,3.435678780078888E-002,-8.904097080230713E-001,4.219304323196411E-001,9.944647550582886E-002,3.435678780078888E-002,-8.904097080230713E-001,4.219304323196411E-001,
1.175266666666667E+009,1.137869134545326E-001,2.012677118182182E-002,-8.790657520294190E-001,4.262957572937012E-001,1.137869134545326E-001,2.012677118182182E-002,-8.790657520294190E-001,4.262957572937012E-001,
1.183633333333334E+009,1.245101019740105E-001,1.625988283194602E-003,-8.663980960845947E-001,4.639676213264465E-001,1.245101019740105E-001,1.625988283194602E-003,-8.663980960845947E-001,4.639676213264465E-001,
1.192000000000000E+009,1.246220394968987E-001,-2.081918343901634E-002,-8.572614789009094E-001,4.703435599803925E-001,1.246220394968987E-001,-2.081918343901634E-002,-8.572614789009094E-001,4.703435599803925E-001,
1.200366666666667E+009,1.133740022778511E-001,-3.750066831707954E-002,-8.484789133071899E-001,4.986146390438080E-001,1.133740022778511E-001,-3.750066831707954E-002,-8.484789133071899E-001,4.986146390438080E-001,
1.208733333333334E+009,9.765931218862534E-002,-4.795005172491074E-002,-8.438940048217773E-001,5.137056708335877E-001,9.765931218862534E-002,-4.795005172491074E-002,-8.438940048217773E-001,5.137056708335877E-001,
1.217100000000000E+009,7.959805428981781E-002,-4.595209658145905E-002,-8.279167413711548E-001,5.365305542945862E-001,7.959805428981781E-002,-4.595209658145905E-002,-8.279167413711548E-001,5.365305542945862E-001,
1.225466666666667E+009,6.837704777717590E-002,-3.881468251347542E-002,-8.038240671157837E-001,5.623254776000977E-001,6.837704777717590E-002,-3.881468251347542E-002,-8.038240671157837E-001,5.623254776000977E-001,
1.233833333333334E+009,6.173623353242874E-002,-2.333854138851166E-002,-7.870582938194275E-001,5.815489888191223E-001,6.173623353242874E-002,-2.333854138851166E-002,-7.870582938194275E-001,5.815489888191223E-001,
1.242200000000000E+009,6.583502143621445E-002,-8.279999718070030E-003,-7.717481255531311E-001,5.950713753700256E-001,6.583502143621445E-002,-8.279999718070030E-003,-7.717481255531311E-001,5.950713753700256E-001,
1.250566666666667E+009,8.056709915399551E-002,-9.566799853928387E-004,-7.443056106567383E-001,6.231556534767151E-001,8.056709915399551E-002,-9.566799853928387E-004,-7.443056106567383E-001,6.231556534767151E-001,
1.258933333333334E+009,9.757176041603088E-002,-3.410435980185866E-003,-7.536433339118958E-001,6.420388221740723E-001,9.757176041603088E-002,-3.410435980185866E-003,-7.536433339118958E-001,6.420388221740723E-001,
1.267300000000000E+009,1.136695742607117E-001,-1.774859987199307E-002,-7.309923171997070E-001,6.550782322883606E-001,1.136695742607117E-001,-1.774859987199307E-002,-7.309923171997070E-001,6.550782322883606E-001,
1.275666666666667E+009,1.222170069813728E-001,-3.863302245736122E-002,-6.962166428565979E-001,6.756618618965149E-001,1.222170069813728E-001,-3.863302245736122E-002,-6.962166428565979E-001,6.756618618965149E-001,
1.284033333333334E+009,1.197173818945885E-001,-6.291233003139496E-002,-6.896362304687500E-001,6.961641907691956E-001,1.197173818945885E-001,-6.291233003139496E-002,-6.896362304687500E-001,6.961641907691956E-001,
1.292400000000000E+009,1.069057583808899E-001,-8.273194730281830E-002,-6.788508296012878E-001,7.091633081436157E-001,1.069057583808899E-001,-8.273194730281830E-002,-6.788508296012878E-001,7.091633081436157E-001,
1.300766666666667E+009,8.728120476007462E-002,-9.212671965360642E-002,-6.557205915451050E-001,7.244063615798950E-001,8.728120476007462E-002,-9.212671965360642E-002,-6.557205915451050E-001,7.244063615798950E-001,
1.309133333333334E+009,6.468561291694641E-002,-9.166883677244186E-002,-6.455817818641663E-001,7.420118451118469E-001,6.468561291694641E-002,-9.166883677244186E-002,-6.455817818641663E-001,7.420118451118469E-001,
1.317500000000000E+009,5.139315128326416E-002,-8.134702593088150E-002,-6.203494071960449E-001,7.575849294662476E-001,5.139315128326416E-002,-8.134702593088150E-002,-6.203494071960449E-001,7.575849294662476E-001,
1.325866666666667E+009,4.481093958020210E-002,-6.337324529886246E-002,-6.050129532814026E-001,7.719026207923889E-001,4.481093958020210E-002,-6.337324529886246E-002,-6.050129532814026E-001,7.719026207923889E-001,
1.334233333333334E+009,5.048190802335739E-002,-4.796281084418297E-002,-5.762460231781006E-001,7.929118871688843E-001,5.048190802335739E-002,-4.796281084418297E-002,-5.762460231781006E-001,7.929118871688843E-001,
1.342600000000000E+009,6.292308121919632E-002,-4.136015102267265E-002,-5.559318661689758E-001,8.121102452278137E-001,6.292308121919632E-002,-4.136015102267265E-002,-5.559318661689758E-001,8.121102452278137E-001,
1.350966666666667E+009,7.933717966079712E-002,-4.534427449107170E-002,-5.245612263679504E-001,8.359630107879639E-001,7.933717966079712E-002,-4.534427449107170E-002,-5.245612263679504E-001,8.359630107879639E-001,
1.359333333333334E+009,9.339766949415207E-002,-5.882905796170235E-002,-5.119028091430664E-001,8.363747000694275E-001,9.339766949415207E-002,-5.882905796170235E-002,-5.119028091430664E-001,8.363747000694275E-001,
1.367700000000000E+009,9.310308843851090E-002,-8.154989778995514E-002,-4.945478737354279E-001,8.435525298118591E-001,9.310308843851090E-002,-8.154989778995514E-002,-4.945478737354279E-001,8.435525298118591E-001,
1.376066666666667E+009,8.582519739866257E-002,-1.021742299199104E-001,-4.782167077064514E-001,8.583937287330627E-001,8.582519739866257E-002,-1.021742299199104E-001,-4.782167077064514E-001,8.583937287330627E-001,
1.384433333333334E+009,6.670479476451874E-002,-1.203976050019264E-001,-4.548168182373047E-001,8.782331347465515E-001,6.670479476451874E-002,-1.203976050019264E-001,-4.548168182373047E-001,8.782331347465515E-001,
1.392800000000000E+009,4.342151805758476E-002,-1.249921992421150E-001,-4.418261945247650E-001,8.740416765213013E-001,4.342151805758476E-002,-1.249921992421150E-001,-4.418261945247650E-001,8.740416765213013E-001,
1.401166666666667E+009,2.182830497622490E-002,-1.176700219511986E-001,-4.184621274471283E-001,8.924101591110230E-001,2.182830497622490E-002,-1.176700219511986E-001,-4.184621274471283E-001,8.924101591110230E-001,
1.409533333333334E+009,6.686766631901264E-003,-1.019755378365517E-001,-3.879933357238770E-001,9.044937491416931E-001,6.686766631901264E-003,-1.019755378365517E-001,-3.879933357238770E-001,9.044937491416931E-001,
1.417900000000000E+009,3.854783019050956E-003,-7.868476957082748E-002,-3.754526674747467E-001,9.003578424453735E-001,3.854783019050956E-003,-7.868476957082748E-002,-3.754526674747467E-001,9.003578424453735E-001,
1.426266666666667E+009,1.361737586557865E-002,-6.364011764526367E-002,-3.409217596054077E-001,9.253527522087097E-001,1.361737586557865E-002,-6.364011764526367E-002,-3.409217596054077E-001,9.253527522087097E-001,
1.434633333333334E+009,3.074763901531696E-002,-5.430278927087784E-002,-3.074062466621399E-001,9.345087409019470E-001,3.074763901531696E-002,-5.430278927087784E-002,-3.074062466621399E-001,9.345087409019470E-001,
1.443000000000000E+009,4.827074334025383E-002,-5.756826698780060E-002,-2.889057099819183E-001,9.390680193901062E-001,4.827074334025383E-002,-5.756826698780060E-002,-2.889057099819183E-001,9.390680193901062E-001,
1.451366666666667E+009,6.157276034355164E-002,-7.104261964559555E-002,-2.569857835769653E-001,9.396941065788269E-001,6.157276034355164E-002,-7.104261964559555E-002,-2.569857835769653E-001,9.396941065788269E-001,
1.459733333333334E+009,6.567549705505371E-002,-9.512849897146225E-002,-2.390390336513519E-001,9.437912702560425E-001,6.567549705505371E-002,-9.512849897146225E-002,-2.390390336513519E-001,9.437912702560425E-001,
