% Version 1.00
%
%freq[Hz],re:Trc1_S11,im:Trc1_S11,re:Trc2_S21,im:Trc2_S21,re:Trc3_S11,im:Trc3_S11,re:Trc4_S21,im:Trc4_S21,
6.900000000000000E+008,-3.126203268766403E-002,5.212444067001343E-002,-5.017088055610657E-001,-8.509085178375244E-001,-3.126203268766403E-002,5.212444067001343E-002,-5.017088055610657E-001,-8.509085178375244E-001,
6.983666666666666E+008,-2.136951126158238E-002,5.266518518328667E-002,-5.200893282890320E-001,-8.358428478240967E-001,-2.136951126158238E-002,5.266518518328667E-002,-5.200893282890320E-001,-8.358428478240967E-001,
7.067333333333334E+008,-1.433617249131203E-002,4.770589619874954E-002,-5.658178925514221E-001,-7.785083651542664E-001,-1.433617249131203E-002,4.770589619874954E-002,-5.658178925514221E-001,-7.785083651542664E-001,
7.151000000000000E+008,-1.298869401216507E-002,4.048356041312218E-002,-5.854004025459290E-001,-7.953010797500610E-001,-1.298869401216507E-002,4.048356041312218E-002,-5.854004025459290E-001,-7.953010797500610E-001,
7.234666666666666E+008,-1.561774220317602E-002,3.554012253880501E-002,-5.995315909385681E-001,-7.809917926788330E-001,-1.561774220317602E-002,3.554012253880501E-002,-5.995315909385681E-001,-7.809917926788330E-001,
7.318333333333334E+008,-2.218351513147354E-002,3.323850408196449E-002,-6.119531393051148E-001,-7.767871618270874E-001,-2.218351513147354E-002,3.323850408196449E-002,-6.119531393051148E-001,-7.767871618270874E-001,
7.402000000000000E+008,-2.807117253541946E-002,3.416866436600685E-002,-6.580283045768738E-001,-7.646054625511169E-001,-2.807117253541946E-002,3.416866436600685E-002,-6.580283045768738E-001,-7.646054625511169E-001,
7.485666666666666E+008,-3.433047235012054E-002,4.052430391311646E-002,-6.552727818489075E-001,-7.557080388069153E-001,-3.433047235012054E-002,4.052430391311646E-002,-6.552727818489075E-001,-7.557080388069153E-001,
7.569333333333334E+008,-3.468795493245125E-002,4.852968081831932E-002,-6.608939170837402E-001,-7.419034242630005E-001,-3.468795493245125E-002,4.852968081831932E-002,-6.608939170837402E-001,-7.419034242630005E-001,
7.653000000000000E+008,-2.900777757167816E-002,5.653633177280426E-002,-6.784102916717529E-001,-7.199455499649048E-001,-2.900777757167816E-002,5.653633177280426E-002,-6.784102916717529E-001,-7.199455499649048E-001,
7.736666666666666E+008,-2.142836526036263E-002,6.297808885574341E-002,-7.112803459167481E-001,-6.937960982322693E-001,-2.142836526036263E-002,6.297808885574341E-002,-7.112803459167481E-001,-6.937960982322693E-001,
7.820333333333334E+008,-1.174286659806967E-002,6.610210984945297E-002,-7.249968051910400E-001,-6.790406107902527E-001,-1.174286659806967E-002,6.610210984945297E-002,-7.249968051910400E-001,-6.790406107902527E-001,
7.904000000000000E+008,-1.408449170412496E-004,6.480309367179871E-002,-7.304814457893372E-001,-6.575421690940857E-001,-1.408449170412496E-004,6.480309367179871E-002,-7.304814457893372E-001,-6.575421690940857E-001,
7.987666666666666E+008,5.078674294054508E-003,5.977289378643036E-002,-7.639729380607605E-001,-6.370977163314819E-001,5.078674294054508E-003,5.977289378643036E-002,-7.639729380607605E-001,-6.370977163314819E-001,
8.071333333333334E+008,8.361766114830971E-003,5.481535568833351E-002,-7.712091207504273E-001,-6.281209588050842E-001,8.361766114830971E-003,5.481535568833351E-002,-7.712091207504273E-001,-6.281209588050842E-001,
8.155000000000000E+008,2.827383577823639E-003,4.886144027113915E-002,-7.930722236633301E-001,-6.050216555595398E-001,2.827383577823639E-003,4.886144027113915E-002,-7.930722236633301E-001,-6.050216555595398E-001,
8.238666666666666E+008,1.051491126418114E-003,4.534675553441048E-002,-7.953769564628601E-001,-5.732448697090149E-001,1.051491126418114E-003,4.534675553441048E-002,-7.953769564628601E-001,-5.732448697090149E-001,
8.322333333333334E+008,-6.089892238378525E-003,4.570057243108749E-002,-8.165586590766907E-001,-5.573061108589172E-001,-6.089892238378525E-003,4.570057243108749E-002,-8.165586590766907E-001,-5.573061108589172E-001,
8.406000000000000E+008,-1.062348857522011E-002,4.913115128874779E-002,-8.295828104019165E-001,-5.430090427398682E-001,-1.062348857522011E-002,4.913115128874779E-002,-8.295828104019165E-001,-5.430090427398682E-001,
8.489666666666668E+008,-1.354001928120852E-002,5.678944289684296E-002,-8.390926718711853E-001,-5.272627472877502E-001,-1.354001928120852E-002,5.678944289684296E-002,-8.390926718711853E-001,-5.272627472877502E-001,
8.573333333333334E+008,-1.079953182488680E-002,6.401937454938889E-002,-8.558827638626099E-001,-4.831345975399017E-001,-1.079953182488680E-002,6.401937454938889E-002,-8.558827638626099E-001,-4.831345975399017E-001,
8.657000000000000E+008,-1.116205705329776E-003,7.164867222309113E-002,-8.701927661895752E-001,-4.714079499244690E-001,-1.116205705329776E-003,7.164867222309113E-002,-8.701927661895752E-001,-4.714079499244690E-001,
8.740666666666668E+008,7.979617454111576E-003,7.354537397623062E-002,-8.721349835395813E-001,-4.547899663448334E-001,7.979617454111576E-003,7.354537397623062E-002,-8.721349835395813E-001,-4.547899663448334E-001,
8.824333333333334E+008,1.831371523439884E-002,7.306136935949326E-002,-8.870528340339661E-001,-4.389946758747101E-001,1.831371523439884E-002,7.306136935949326E-002,-8.870528340339661E-001,-4.389946758747101E-001,
8.908000000000000E+008,2.836564555764198E-002,6.773326545953751E-002,-8.871566653251648E-001,-4.051718413829804E-001,2.836564555764198E-002,6.773326545953751E-002,-8.871566653251648E-001,-4.051718413829804E-001,
8.991666666666668E+008,3.240584209561348E-002,6.054917350411415E-002,-8.965607881546021E-001,-3.809100091457367E-001,3.240584209561348E-002,6.054917350411415E-002,-8.965607881546021E-001,-3.809100091457367E-001,
9.075333333333334E+008,3.351791948080063E-002,5.446672812104225E-002,-9.310217499732971E-001,-3.600818514823914E-001,3.351791948080063E-002,5.446672812104225E-002,-9.310217499732971E-001,-3.600818514823914E-001,
9.159000000000000E+008,3.170343860983849E-002,5.094687268137932E-002,-9.383236169815064E-001,-3.320018649101257E-001,3.170343860983849E-002,5.094687268137932E-002,-9.383236169815064E-001,-3.320018649101257E-001,
9.242666666666668E+008,2.670891955494881E-002,4.795697331428528E-002,-9.426105022430420E-001,-3.149488270282745E-001,2.670891955494881E-002,4.795697331428528E-002,-9.426105022430420E-001,-3.149488270282745E-001,
9.326333333333334E+008,1.939382962882519E-002,4.840785637497902E-002,-9.615628719329834E-001,-2.942191660404205E-001,1.939382962882519E-002,4.840785637497902E-002,-9.615628719329834E-001,-2.942191660404205E-001,
9.410000000000000E+008,1.621318981051445E-002,5.300115421414375E-002,-9.588374495506287E-001,-2.626156806945801E-001,1.621318981051445E-002,5.300115421414375E-002,-9.588374495506287E-001,-2.626156806945801E-001,
9.493666666666668E+008,1.648306101560593E-002,5.885322764515877E-002,-9.576529860496521E-001,-2.427184879779816E-001,1.648306101560593E-002,5.885322764515877E-002,-9.576529860496521E-001,-2.427184879779816E-001,
9.577333333333334E+008,1.967758871614933E-002,6.682693213224411E-002,-9.716870188713074E-001,-2.180996984243393E-001,1.967758871614933E-002,6.682693213224411E-002,-9.716870188713074E-001,-2.180996984243393E-001,
9.661000000000000E+008,2.934953942894936E-002,7.321254163980484E-002,-9.667008519172669E-001,-1.967379152774811E-001,2.934953942894936E-002,7.321254163980484E-002,-9.667008519172669E-001,-1.967379152774811E-001,
9.744666666666668E+008,3.863551467657089E-002,7.294689863920212E-002,-9.727827310562134E-001,-1.728166490793228E-001,3.863551467657089E-002,7.294689863920212E-002,-9.727827310562134E-001,-1.728166490793228E-001,
9.828333333333334E+008,5.295853316783905E-002,6.922810524702072E-002,-9.764129519462585E-001,-1.500113159418106E-001,5.295853316783905E-002,6.922810524702072E-002,-9.764129519462585E-001,-1.500113159418106E-001,
9.912000000000000E+008,6.084102019667625E-002,6.225760653614998E-002,-9.773537516593933E-001,-1.245141625404358E-001,6.084102019667625E-002,6.225760653614998E-002,-9.773537516593933E-001,-1.245141625404358E-001,
9.995666666666668E+008,6.792819499969482E-002,5.248994752764702E-002,-9.918158650398254E-001,-8.295773714780808E-002,6.792819499969482E-002,5.248994752764702E-002,-9.918158650398254E-001,-8.295773714780808E-002,
1.007933333333333E+009,6.813561916351318E-002,4.328007996082306E-002,-9.977070093154907E-001,-7.674109935760498E-002,6.813561916351318E-002,4.328007996082306E-002,-9.977070093154907E-001,-7.674109935760498E-002,
1.016300000000000E+009,6.251536309719086E-002,3.649730980396271E-002,-9.938852190971375E-001,-4.563288390636444E-002,6.251536309719086E-002,3.649730980396271E-002,-9.938852190971375E-001,-4.563288390636444E-002,
1.024666666666667E+009,5.545730888843536E-002,3.004240989685059E-002,-9.972985386848450E-001,-1.290182210505009E-002,5.545730888843536E-002,3.004240989685059E-002,-9.972985386848450E-001,-1.290182210505009E-002,
1.033033333333333E+009,4.951429739594460E-002,3.240216523408890E-002,-9.934102296829224E-001,8.424520492553711E-003,4.951429739594460E-002,3.240216523408890E-002,-9.934102296829224E-001,8.424520492553711E-003,
1.041400000000000E+009,4.395531490445137E-002,3.804932907223702E-002,-9.801521301269531E-001,4.879365488886833E-002,4.395531490445137E-002,3.804932907223702E-002,-9.801521301269531E-001,4.879365488886833E-002,
1.049766666666667E+009,4.379303380846977E-002,4.502027109265328E-002,-9.932268261909485E-001,6.533838063478470E-002,4.379303380846977E-002,4.502027109265328E-002,-9.932268261909485E-001,6.533838063478470E-002,
1.058133333333333E+009,5.037987232208252E-002,5.081005766987801E-002,-9.868871569633484E-001,8.359168469905853E-002,5.037987232208252E-002,5.081005766987801E-002,-9.868871569633484E-001,8.359168469905853E-002,
1.066500000000000E+009,6.181690096855164E-002,5.355278030037880E-002,-9.907442331314087E-001,1.237327232956886E-001,6.181690096855164E-002,5.355278030037880E-002,-9.907442331314087E-001,1.237327232956886E-001,
1.074866666666667E+009,7.270652055740356E-002,5.109574645757675E-002,-9.744223952293396E-001,1.389432400465012E-001,7.270652055740356E-002,5.109574645757675E-002,-9.744223952293396E-001,1.389432400465012E-001,
1.083233333333334E+009,8.482918143272400E-002,3.912874683737755E-002,-9.740989208221436E-001,1.586168259382248E-001,8.482918143272400E-002,3.912874683737755E-002,-9.740989208221436E-001,1.586168259382248E-001,
1.091600000000000E+009,9.125659614801407E-002,2.795398235321045E-002,-9.636731743812561E-001,1.821935027837753E-001,9.125659614801407E-002,2.795398235321045E-002,-9.636731743812561E-001,1.821935027837753E-001,
1.099966666666667E+009,9.323921054601669E-002,1.302275992929936E-002,-9.662284851074219E-001,2.193611562252045E-001,9.323921054601669E-002,1.302275992929936E-002,-9.662284851074219E-001,2.193611562252045E-001,
1.108333333333334E+009,8.406078815460205E-002,1.754372031427920E-003,-9.443348050117493E-001,2.272045314311981E-001,8.406078815460205E-002,1.754372031427920E-003,-9.443348050117493E-001,2.272045314311981E-001,
1.116700000000000E+009,7.037489861249924E-002,4.079427162650973E-004,-9.460442662239075E-001,2.689284980297089E-001,7.037489861249924E-002,4.079427162650973E-004,-9.460442662239075E-001,2.689284980297089E-001,
1.125066666666667E+009,5.820694193243980E-002,8.391951560042799E-004,-9.507958292961121E-001,2.782039344310761E-001,5.820694193243980E-002,8.391951560042799E-004,-9.507958292961121E-001,2.782039344310761E-001,
1.133433333333334E+009,4.964365437626839E-002,1.276362873613834E-002,-9.512068033218384E-001,3.050380945205689E-001,4.964365437626839E-002,1.276362873613834E-002,-9.512068033218384E-001,3.050380945205689E-001,
1.141800000000000E+009,4.961175471544266E-002,2.323270216584206E-002,-9.223930835723877E-001,3.280993998050690E-001,4.961175471544266E-002,2.323270216584206E-002,-9.223930835723877E-001,3.280993998050690E-001,
1.150166666666667E+009,5.646610632538796E-002,3.581920638680458E-002,-9.071325659751892E-001,3.556424677371979E-001,5.646610632538796E-002,3.581920638680458E-002,-9.071325659751892E-001,3.556424677371979E-001,
1.158533333333334E+009,7.131896913051605E-002,4.202933236956596E-002,-9.067040681838989E-001,3.803399503231049E-001,7.131896913051605E-002,4.202933236956596E-002,-9.067040681838989E-001,3.803399503231049E-001,
1.166900000000000E+009,9.085842967033386E-002,3.921196609735489E-002,-9.003701806068420E-001,4.164862334728241E-001,9.085842967033386E-002,3.921196609735489E-002,-9.003701806068420E-001,4.164862334728241E-001,
1.175266666666667E+009,1.058326214551926E-001,2.529701776802540E-002,-8.882949352264404E-001,4.211875796318054E-001,1.058326214551926E-001,2.529701776802540E-002,-8.882949352264404E-001,4.211875796318054E-001,
1.183633333333334E+009,1.166096404194832E-001,6.745647173374891E-003,-8.733475208282471E-001,4.583063125610352E-001,1.166096404194832E-001,6.745647173374891E-003,-8.733475208282471E-001,4.583063125610352E-001,
1.192000000000000E+009,1.171130463480949E-001,-1.506938692182303E-002,-8.640180230140686E-001,4.638841748237610E-001,1.171130463480949E-001,-1.506938692182303E-002,-8.640180230140686E-001,4.638841748237610E-001,
1.200366666666667E+009,1.065658405423164E-001,-3.183240443468094E-002,-8.553355336189270E-001,4.922575652599335E-001,1.065658405423164E-001,-3.183240443468094E-002,-8.553355336189270E-001,4.922575652599335E-001,
1.208733333333334E+009,9.056563675403595E-002,-4.257729649543762E-002,-8.503847718238831E-001,5.084489583969116E-001,9.056563675403595E-002,-4.257729649543762E-002,-8.503847718238831E-001,5.084489583969116E-001,
1.217100000000000E+009,7.239400595426559E-002,-3.998580574989319E-002,-8.402233719825745E-001,5.306853652000427E-001,7.239400595426559E-002,-3.998580574989319E-002,-8.402233719825745E-001,5.306853652000427E-001,
1.225466666666667E+009,6.093199178576469E-002,-3.319510817527771E-002,-8.121137619018555E-001,5.587198138237000E-001,6.093199178576469E-002,-3.319510817527771E-002,-8.121137619018555E-001,5.587198138237000E-001,
1.233833333333334E+009,5.360757559537888E-002,-1.710779219865799E-002,-7.951543927192688E-001,5.764849185943604E-001,5.360757559537888E-002,-1.710779219865799E-002,-7.951543927192688E-001,5.764849185943604E-001,
1.242200000000000E+009,5.792914703488350E-002,-1.920154434628785E-003,-7.814103364944458E-001,5.889957547187805E-001,5.792914703488350E-002,-1.920154434628785E-003,-7.814103364944458E-001,5.889957547187805E-001,
1.250566666666667E+009,7.212876528501511E-002,5.914337933063507E-003,-7.540856003761292E-001,6.171908974647522E-001,7.212876528501511E-002,5.914337933063507E-003,-7.540856003761292E-001,6.171908974647522E-001,
1.258933333333334E+009,8.945704251527786E-002,3.501505125313997E-003,-7.624261379241943E-001,6.393440961837769E-001,8.945704251527786E-002,3.501505125313997E-003,-7.624261379241943E-001,6.393440961837769E-001,
1.267300000000000E+009,1.064655035734177E-001,-1.014858204871416E-002,-7.400394678115845E-001,6.479489207267761E-001,1.064655035734177E-001,-1.014858204871416E-002,-7.400394678115845E-001,6.479489207267761E-001,
1.275666666666667E+009,1.159709841012955E-001,-3.044568747282028E-002,-7.051264047622681E-001,6.724146604537964E-001,1.159709841012955E-001,-3.044568747282028E-002,-7.051264047622681E-001,6.724146604537964E-001,
1.284033333333334E+009,1.143174767494202E-001,-5.489556863903999E-002,-7.003982067108154E-001,6.939601898193359E-001,1.143174767494202E-001,-5.489556863903999E-002,-7.003982067108154E-001,6.939601898193359E-001,
1.292400000000000E+009,1.018007621169090E-001,-7.421934604644775E-002,-6.882772445678711E-001,7.045018076896668E-001,1.018007621169090E-001,-7.421934604644775E-002,-6.882772445678711E-001,7.045018076896668E-001,
1.300766666666667E+009,8.246051520109177E-002,-8.401390165090561E-002,-6.650038361549377E-001,7.214084863662720E-001,8.246051520109177E-002,-8.401390165090561E-002,-6.650038361549377E-001,7.214084863662720E-001,
1.309133333333334E+009,5.997774749994278E-002,-8.313997089862824E-002,-6.562033891677856E-001,7.398982644081116E-001,5.997774749994278E-002,-8.313997089862824E-002,-6.562033891677856E-001,7.398982644081116E-001,
1.317500000000000E+009,4.618438705801964E-002,-7.260810583829880E-002,-6.316555142402649E-001,7.537887692451477E-001,4.618438705801964E-002,-7.260810583829880E-002,-6.316555142402649E-001,7.537887692451477E-001,
1.325866666666667E+009,3.906712308526039E-002,-5.468273535370827E-002,-6.153807640075684E-001,7.699775099754334E-001,3.906712308526039E-002,-5.468273535370827E-002,-6.153807640075684E-001,7.699775099754334E-001,
1.334233333333334E+009,4.465788975358009E-002,-3.877287358045578E-002,-5.862235426902771E-001,7.903640270233154E-001,4.465788975358009E-002,-3.877287358045578E-002,-5.862235426902771E-001,7.903640270233154E-001,
1.342600000000000E+009,5.729387700557709E-002,-3.146399557590485E-002,-5.663484930992127E-001,8.079270124435425E-001,5.729387700557709E-002,-3.146399557590485E-002,-5.663484930992127E-001,8.079270124435425E-001,
1.350966666666667E+009,7.398591190576553E-002,-3.525700047612190E-002,-5.336295366287231E-001,8.343520760536194E-001,7.398591190576553E-002,-3.525700047612190E-002,-5.336295366287231E-001,8.343520760536194E-001,
1.359333333333334E+009,8.933773636817932E-002,-4.900379478931427E-002,-5.256386995315552E-001,8.332834839820862E-001,8.933773636817932E-002,-4.900379478931427E-002,-5.256386995315552E-001,8.332834839820862E-001,
1.367700000000000E+009,8.906410634517670E-002,-7.178731262683868E-002,-5.034102201461792E-001,8.418026566505432E-001,8.906410634517670E-002,-7.178731262683868E-002,-5.034102201461792E-001,8.418026566505432E-001,
1.376066666666667E+009,8.278567343950272E-002,-9.239799529314041E-002,-4.895260632038117E-001,8.564464449882507E-001,8.278567343950272E-002,-9.239799529314041E-002,-4.895260632038117E-001,8.564464449882507E-001,
1.384433333333334E+009,6.427712738513947E-002,-1.108565330505371E-001,-4.657744467258453E-001,8.764389157295227E-001,6.427712738513947E-002,-1.108565330505371E-001,-4.657744467258453E-001,8.764389157295227E-001,
1.392800000000000E+009,4.067889973521233E-002,-1.151267141103745E-001,-4.471590518951416E-001,8.735648989677429E-001,4.067889973521233E-002,-1.151267141103745E-001,-4.471590518951416E-001,8.735648989677429E-001,
1.401166666666667E+009,2.005137689411640E-002,-1.078968420624733E-001,-4.290751218795776E-001,8.929024338722229E-001,2.005137689411640E-002,-1.078968420624733E-001,-4.290751218795776E-001,8.929024338722229E-001,
1.409533333333334E+009,4.719316028058529E-003,-9.180626273155212E-002,-3.980761468410492E-001,9.043626785278320E-001,4.719316028058529E-003,-9.180626273155212E-002,-3.980761468410492E-001,9.043626785278320E-001,
1.417900000000000E+009,1.699243672192097E-003,-6.824553012847900E-002,-3.854534029960632E-001,8.997346162796021E-001,1.699243672192097E-003,-6.824553012847900E-002,-3.854534029960632E-001,8.997346162796021E-001,
1.426266666666667E+009,1.110098697245121E-002,-5.240330845117569E-002,-3.512958586215973E-001,9.292867183685303E-001,1.110098697245121E-002,-5.240330845117569E-002,-3.512958586215973E-001,9.292867183685303E-001,
1.434633333333334E+009,2.875816076993942E-002,-4.287004098296166E-002,-3.182376921176910E-001,9.361264705657959E-001,2.875816076993942E-002,-4.287004098296166E-002,-3.182376921176910E-001,9.361264705657959E-001,
1.443000000000000E+009,4.721245914697647E-002,-4.630626365542412E-002,-3.015831112861633E-001,9.411637783050537E-001,4.721245914697647E-002,-4.630626365542412E-002,-3.015831112861633E-001,9.411637783050537E-001,
1.451366666666667E+009,5.997172370553017E-002,-5.953663587570190E-002,-2.661517560482025E-001,9.398569464683533E-001,5.997172370553017E-002,-5.953663587570190E-002,-2.661517560482025E-001,9.398569464683533E-001,
1.459733333333334E+009,6.545254588127136E-002,-8.366727828979492E-002,-2.508656978607178E-001,9.438141584396362E-001,6.545254588127136E-002,-8.366727828979492E-002,-2.508656978607178E-001,9.438141584396362E-001,
