% Version 1.00
%
%freq[Hz],re:Trc1_S11,im:Trc1_S11,re:Trc2_S21,im:Trc2_S21,re:Trc3_S11,im:Trc3_S11,re:Trc4_S21,im:Trc4_S21,
6.900000000000000E+008,-3.827308118343353E-002,6.226912885904312E-002,-5.056278705596924E-001,-8.446738719940186E-001,-3.827308118343353E-002,6.226912885904312E-002,-5.056278705596924E-001,-8.446738719940186E-001,
6.983666666666666E+008,-2.781486697494984E-002,6.335589289665222E-002,-5.286281108856201E-001,-8.342455625534058E-001,-2.781486697494984E-002,6.335589289665222E-002,-5.286281108856201E-001,-8.342455625534058E-001,
7.067333333333334E+008,-2.080547064542770E-002,5.864293128252029E-002,-5.729411840438843E-001,-7.721802592277527E-001,-2.080547064542770E-002,5.864293128252029E-002,-5.729411840438843E-001,-7.721802592277527E-001,
7.151000000000000E+008,-1.918159797787666E-002,5.168337374925613E-002,-5.926840305328369E-001,-7.862708568572998E-001,-1.918159797787666E-002,5.168337374925613E-002,-5.926840305328369E-001,-7.862708568572998E-001,
7.234666666666666E+008,-2.163210697472096E-002,4.737763106822968E-002,-6.044291853904724E-001,-7.733841538429260E-001,-2.163210697472096E-002,4.737763106822968E-002,-6.044291853904724E-001,-7.733841538429260E-001,
7.318333333333334E+008,-2.741139568388462E-002,4.596310853958130E-002,-6.179783940315247E-001,-7.717453837394714E-001,-2.741139568388462E-002,4.596310853958130E-002,-6.179783940315247E-001,-7.717453837394714E-001,
7.402000000000000E+008,-3.284167125821114E-002,4.711138084530830E-002,-6.651812791824341E-001,-7.526128292083740E-001,-3.284167125821114E-002,4.711138084530830E-002,-6.651812791824341E-001,-7.526128292083740E-001,
7.485666666666666E+008,-3.851237893104553E-002,5.415740236639977E-002,-6.627347469329834E-001,-7.494899630546570E-001,-3.851237893104553E-002,5.415740236639977E-002,-6.627347469329834E-001,-7.494899630546570E-001,
7.569333333333334E+008,-3.848023712635040E-002,6.266727298498154E-002,-6.698947548866272E-001,-7.279829382896423E-001,-3.848023712635040E-002,6.266727298498154E-002,-6.698947548866272E-001,-7.279829382896423E-001,
7.653000000000000E+008,-3.227861970663071E-002,7.038730382919312E-002,-6.900622844696045E-001,-7.084421515464783E-001,-3.227861970663071E-002,7.038730382919312E-002,-6.900622844696045E-001,-7.084421515464783E-001,
7.736666666666666E+008,-2.452819608151913E-002,7.670544087886810E-002,-7.204202413558960E-001,-6.811120510101318E-001,-2.452819608151913E-002,7.670544087886810E-002,-7.204202413558960E-001,-6.811120510101318E-001,
7.820333333333334E+008,-1.408491656184197E-002,7.935195416212082E-002,-7.321152091026306E-001,-6.684078574180603E-001,-1.408491656184197E-002,7.935195416212082E-002,-7.321152091026306E-001,-6.684078574180603E-001,
7.904000000000000E+008,-2.798045286908746E-003,7.824153453111649E-002,-7.361732125282288E-001,-6.474030017852783E-001,-2.798045286908746E-003,7.824153453111649E-002,-7.361732125282288E-001,-6.474030017852783E-001,
7.987666666666666E+008,2.856023609638214E-003,7.289983332157135E-002,-7.707598209381104E-001,-6.262151598930359E-001,2.856023609638214E-003,7.289983332157135E-002,-7.707598209381104E-001,-6.262151598930359E-001,
8.071333333333334E+008,6.925417575985193E-003,6.813848018646240E-002,-7.760621309280396E-001,-6.148769855499268E-001,6.925417575985193E-003,6.813848018646240E-002,-7.760621309280396E-001,-6.148769855499268E-001,
8.155000000000000E+008,2.218268113210797E-003,6.244694069027901E-002,-7.985916733741760E-001,-5.932263135910034E-001,2.218268113210797E-003,6.244694069027901E-002,-7.985916733741760E-001,-5.932263135910034E-001,
8.238666666666666E+008,-3.432913581491448E-005,5.882234126329422E-002,-8.005737662315369E-001,-5.646861791610718E-001,-3.432913581491448E-005,5.882234126329422E-002,-8.005737662315369E-001,-5.646861791610718E-001,
8.322333333333334E+008,-6.035254802554846E-003,5.999938026070595E-002,-8.218142390251160E-001,-5.431026816368103E-001,-6.035254802554846E-003,5.999938026070595E-002,-8.218142390251160E-001,-5.431026816368103E-001,
8.406000000000000E+008,-1.002124045044184E-002,6.407839804887772E-002,-8.319718837738037E-001,-5.312411785125732E-001,-1.002124045044184E-002,6.407839804887772E-002,-8.319718837738037E-001,-5.312411785125732E-001,
8.489666666666668E+008,-1.234836783260107E-002,7.191823422908783E-002,-8.432231545448303E-001,-5.149435400962830E-001,-1.234836783260107E-002,7.191823422908783E-002,-8.432231545448303E-001,-5.149435400962830E-001,
8.573333333333334E+008,-9.398374706506729E-003,7.945683598518372E-002,-8.599314689636231E-001,-4.727329313755035E-001,-9.398374706506729E-003,7.945683598518372E-002,-8.599314689636231E-001,-4.727329313755035E-001,
8.657000000000000E+008,1.208789297379553E-003,8.663477748632431E-002,-8.756236433982849E-001,-4.537171423435211E-001,1.208789297379553E-003,8.663477748632431E-002,-8.756236433982849E-001,-4.537171423435211E-001,
8.740666666666668E+008,1.008268445730209E-002,8.862197399139404E-002,-8.747500777244568E-001,-4.401907026767731E-001,1.008268445730209E-002,8.862197399139404E-002,-8.747500777244568E-001,-4.401907026767731E-001,
8.824333333333334E+008,2.100276947021484E-002,8.765498548746109E-002,-8.907857537269592E-001,-4.259316027164459E-001,2.100276947021484E-002,8.765498548746109E-002,-8.907857537269592E-001,-4.259316027164459E-001,
8.908000000000000E+008,3.128743916749954E-002,8.232863992452622E-002,-8.905327320098877E-001,-3.938894569873810E-001,3.128743916749954E-002,8.232863992452622E-002,-8.905327320098877E-001,-3.938894569873810E-001,
8.991666666666668E+008,3.575783222913742E-002,7.527973502874374E-002,-9.064065814018250E-001,-3.664084374904633E-001,3.575783222913742E-002,7.527973502874374E-002,-9.064065814018250E-001,-3.664084374904633E-001,
9.075333333333334E+008,3.755460679531097E-002,6.864903122186661E-002,-9.353667497634888E-001,-3.470313251018524E-001,3.755460679531097E-002,6.864903122186661E-002,-9.353667497634888E-001,-3.470313251018524E-001,
9.159000000000000E+008,3.597914054989815E-002,6.576554477214813E-002,-9.417968392372131E-001,-3.183362483978272E-001,3.597914054989815E-002,6.576554477214813E-002,-9.417968392372131E-001,-3.183362483978272E-001,
9.242666666666668E+008,3.221663460135460E-002,6.245097145438194E-002,-9.467733502388001E-001,-3.039782345294952E-001,3.221663460135460E-002,6.245097145438194E-002,-9.467733502388001E-001,-3.039782345294952E-001,
9.326333333333334E+008,2.588516473770142E-002,6.353869289159775E-002,-9.671556353569031E-001,-2.805494666099548E-001,2.588516473770142E-002,6.353869289159775E-002,-9.671556353569031E-001,-2.805494666099548E-001,
9.410000000000000E+008,2.372750453650951E-002,6.789360195398331E-002,-9.586216807365418E-001,-2.448325008153915E-001,2.372750453650951E-002,6.789360195398331E-002,-9.586216807365418E-001,-2.448325008153915E-001,
9.493666666666668E+008,2.419021725654602E-002,7.406488060951233E-002,-9.574330449104309E-001,-2.275608181953430E-001,2.419021725654602E-002,7.406488060951233E-002,-9.574330449104309E-001,-2.275608181953430E-001,
9.577333333333334E+008,2.809301391243935E-002,8.196639269590378E-002,-9.729915857315064E-001,-2.039404213428497E-001,2.809301391243935E-002,8.196639269590378E-002,-9.729915857315064E-001,-2.039404213428497E-001,
9.661000000000000E+008,3.864664956927300E-002,8.809229731559753E-002,-9.703986644744873E-001,-1.792333871126175E-001,3.864664956927300E-002,8.809229731559753E-002,-9.703986644744873E-001,-1.792333871126175E-001,
9.744666666666668E+008,4.788935184478760E-002,8.699088543653488E-002,-9.749581217765808E-001,-1.552245318889618E-001,4.788935184478760E-002,8.699088543653488E-002,-9.749581217765808E-001,-1.552245318889618E-001,
9.828333333333334E+008,6.226067245006561E-002,8.282752335071564E-002,-9.772434830665588E-001,-1.336916983127594E-001,6.226067245006561E-002,8.282752335071564E-002,-9.772434830665588E-001,-1.336916983127594E-001,
9.912000000000000E+008,7.075060158967972E-002,7.556466013193131E-002,-9.757928848266602E-001,-1.073880568146706E-001,7.075060158967972E-002,7.556466013193131E-002,-9.757928848266602E-001,-1.073880568146706E-001,
9.995666666666668E+008,7.766622304916382E-002,6.530899554491043E-002,-9.909560084342957E-001,-6.996108591556549E-002,7.766622304916382E-002,6.530899554491043E-002,-9.909560084342957E-001,-6.996108591556549E-002,
1.007933333333333E+009,7.855266332626343E-002,5.542321130633354E-002,-9.881073832511902E-001,-5.497195944190025E-002,7.855266332626343E-002,5.542321130633354E-002,-9.881073832511902E-001,-5.497195944190025E-002,
1.016300000000000E+009,7.385840266942978E-002,4.892508313059807E-002,-9.910268783569336E-001,-2.817304059863091E-002,7.385840266942978E-002,4.892508313059807E-002,-9.910268783569336E-001,-2.817304059863091E-002,
1.024666666666667E+009,6.771383434534073E-002,4.244105145335197E-002,-9.899749755859375E-001,4.656036850064993E-003,6.771383434534073E-002,4.244105145335197E-002,-9.899749755859375E-001,4.656036850064993E-003,
1.033033333333333E+009,6.193494796752930E-002,4.458366334438324E-002,-9.899896979331970E-001,2.367165498435497E-002,6.193494796752930E-002,4.458366334438324E-002,-9.899896979331970E-001,2.367165498435497E-002,
1.041400000000000E+009,5.734797567129135E-002,4.975472763180733E-002,-9.739003181457520E-001,6.188979372382164E-002,5.734797567129135E-002,4.975472763180733E-002,-9.739003181457520E-001,6.188979372382164E-002,
1.049766666666667E+009,5.804774537682533E-002,5.700848624110222E-002,-9.863686561584473E-001,8.289421349763870E-002,5.804774537682533E-002,5.700848624110222E-002,-9.863686561584473E-001,8.289421349763870E-002,
1.058133333333333E+009,6.481216102838516E-002,6.235698610544205E-002,-9.798237681388855E-001,1.011657044291496E-001,6.481216102838516E-002,6.235698610544205E-002,-9.798237681388855E-001,1.011657044291496E-001,
1.066500000000000E+009,7.711820304393768E-002,6.465465575456619E-002,-9.851614832878113E-001,1.389803588390350E-001,7.711820304393768E-002,6.465465575456619E-002,-9.851614832878113E-001,1.389803588390350E-001,
1.074866666666667E+009,8.801589161157608E-002,6.125425174832344E-002,-9.685781002044678E-001,1.568510979413986E-001,8.801589161157608E-002,6.125425174832344E-002,-9.685781002044678E-001,1.568510979413986E-001,
1.083233333333334E+009,9.971594065427780E-002,4.830066859722138E-002,-9.653944969177246E-001,1.777538806200028E-001,9.971594065427780E-002,4.830066859722138E-002,-9.653944969177246E-001,1.777538806200028E-001,
1.091600000000000E+009,1.061693876981735E-001,3.698102012276650E-002,-9.560263156890869E-001,1.988291442394257E-001,1.061693876981735E-001,3.698102012276650E-002,-9.560263156890869E-001,1.988291442394257E-001,
1.099966666666667E+009,1.083879917860031E-001,2.143949829041958E-002,-9.585841298103333E-001,2.366777807474136E-001,1.083879917860031E-001,2.143949829041958E-002,-9.585841298103333E-001,2.366777807474136E-001,
1.108333333333334E+009,9.989912062883377E-002,1.004352327436209E-002,-9.381603002548218E-001,2.402815371751785E-001,9.989912062883377E-002,1.004352327436209E-002,-9.381603002548218E-001,2.402815371751785E-001,
1.116700000000000E+009,8.671507984399796E-002,7.855768315494061E-003,-9.357306957244873E-001,2.853608131408691E-001,8.671507984399796E-002,7.855768315494061E-003,-9.357306957244873E-001,2.853608131408691E-001,
1.125066666666667E+009,7.578115165233612E-002,8.269147016108036E-003,-9.417043328285217E-001,2.955421209335327E-001,7.578115165233612E-002,8.269147016108036E-003,-9.417043328285217E-001,2.955421209335327E-001,
1.133433333333334E+009,6.796973198652268E-002,1.902315020561218E-002,-9.410147666931152E-001,3.207655549049377E-001,6.796973198652268E-002,1.902315020561218E-002,-9.410147666931152E-001,3.207655549049377E-001,
1.141800000000000E+009,6.811621040105820E-002,2.923283539712429E-002,-9.116941094398499E-001,3.421527445316315E-001,6.811621040105820E-002,2.923283539712429E-002,-9.116941094398499E-001,3.421527445316315E-001,
1.150166666666667E+009,7.584454119205475E-002,4.188797995448113E-002,-8.947026729583740E-001,3.738530576229096E-001,7.584454119205475E-002,4.188797995448113E-002,-8.947026729583740E-001,3.738530576229096E-001,
1.158533333333334E+009,9.071250259876251E-002,4.677130654454231E-002,-8.958995342254639E-001,3.972588181495667E-001,9.071250259876251E-002,4.677130654454231E-002,-8.958995342254639E-001,3.972588181495667E-001,
1.166900000000000E+009,1.105074957013130E-001,4.297885671257973E-002,-8.846423625946045E-001,4.302154779434204E-001,1.105074957013130E-001,4.297885671257973E-002,-8.846423625946045E-001,4.302154779434204E-001,
1.175266666666667E+009,1.247719302773476E-001,2.805537171661854E-002,-8.737292289733887E-001,4.340512156486511E-001,1.247719302773476E-001,2.805537171661854E-002,-8.737292289733887E-001,4.340512156486511E-001,
1.183633333333334E+009,1.354584544897080E-001,9.159404784440994E-003,-8.614239692687988E-001,4.730181396007538E-001,1.354584544897080E-001,9.159404784440994E-003,-8.614239692687988E-001,4.730181396007538E-001,
1.192000000000000E+009,1.354874819517136E-001,-1.331928931176662E-002,-8.512671589851379E-001,4.773986339569092E-001,1.354874819517136E-001,-1.331928931176662E-002,-8.512671589851379E-001,4.773986339569092E-001,
1.200366666666667E+009,1.241479665040970E-001,-3.027719259262085E-002,-8.427001833915710E-001,5.045116543769836E-001,1.241479665040970E-001,-3.027719259262085E-002,-8.427001833915710E-001,5.045116543769836E-001,
1.208733333333334E+009,1.086051315069199E-001,-4.095135256648064E-002,-8.374101519584656E-001,5.202124118804932E-001,1.086051315069199E-001,-4.095135256648064E-002,-8.374101519584656E-001,5.202124118804932E-001,
1.217100000000000E+009,9.131674468517304E-002,-3.904024511575699E-002,-8.241483569145203E-001,5.431182384490967E-001,9.131674468517304E-002,-3.904024511575699E-002,-8.241483569145203E-001,5.431182384490967E-001,
1.225466666666667E+009,8.066403865814209E-002,-3.247451782226563E-002,-7.965190410614014E-001,5.694354176521301E-001,8.066403865814209E-002,-3.247451782226563E-002,-7.965190410614014E-001,5.694354176521301E-001,
1.233833333333334E+009,7.470304518938065E-002,-1.730754785239697E-002,-7.797347307205200E-001,5.888544321060181E-001,7.470304518938065E-002,-1.730754785239697E-002,-7.797347307205200E-001,5.888544321060181E-001,
1.242200000000000E+009,7.950441539287567E-002,-2.797530964016914E-003,-7.660833597183228E-001,6.016027927398682E-001,7.950441539287567E-002,-2.797530964016914E-003,-7.660833597183228E-001,6.016027927398682E-001,
1.250566666666667E+009,9.446642547845841E-002,3.852720838040113E-003,-7.361937761306763E-001,6.301414370536804E-001,9.446642547845841E-002,3.852720838040113E-003,-7.361937761306763E-001,6.301414370536804E-001,
1.258933333333334E+009,1.118115857243538E-001,7.169129094108939E-004,-7.449608445167542E-001,6.490013599395752E-001,1.118115857243538E-001,7.169129094108939E-004,-7.449608445167542E-001,6.490013599395752E-001,
1.267300000000000E+009,1.277627199888229E-001,-1.466689445078373E-002,-7.227867841720581E-001,6.609569787979126E-001,1.277627199888229E-001,-1.466689445078373E-002,-7.227867841720581E-001,6.609569787979126E-001,
1.275666666666667E+009,1.363383978605270E-001,-3.564516827464104E-002,-6.885698437690735E-001,6.829747557640076E-001,1.363383978605270E-001,-3.564516827464104E-002,-6.885698437690735E-001,6.829747557640076E-001,
1.284033333333334E+009,1.333330273628235E-001,-6.015920639038086E-002,-6.804100275039673E-001,7.013864517211914E-001,1.333330273628235E-001,-6.015920639038086E-002,-6.804100275039673E-001,7.013864517211914E-001,
1.292400000000000E+009,1.205151528120041E-001,-8.027764409780502E-002,-6.708775162696838E-001,7.153482437133789E-001,1.205151528120041E-001,-8.027764409780502E-002,-6.708775162696838E-001,7.153482437133789E-001,
1.300766666666667E+009,1.008083671331406E-001,-8.947027474641800E-002,-6.476134657859802E-001,7.298052310943604E-001,1.008083671331406E-001,-8.947027474641800E-002,-6.476134657859802E-001,7.298052310943604E-001,
1.309133333333334E+009,7.846385240554810E-002,-8.958621323108673E-002,-6.366156339645386E-001,7.474027872085571E-001,7.846385240554810E-002,-8.958621323108673E-002,-6.366156339645386E-001,7.474027872085571E-001,
1.317500000000000E+009,6.564179062843323E-002,-7.941530644893646E-002,-6.121897697448731E-001,7.626525163650513E-001,6.564179062843323E-002,-7.941530644893646E-002,-6.121897697448731E-001,7.626525163650513E-001,
1.325866666666667E+009,5.952983722090721E-002,-6.227171793580055E-002,-5.957090258598328E-001,7.771530747413635E-001,5.952983722090721E-002,-6.227171793580055E-002,-5.957090258598328E-001,7.771530747413635E-001,
1.334233333333334E+009,6.577856838703156E-002,-4.739318415522575E-002,-5.667498707771301E-001,7.989261746406555E-001,6.577856838703156E-002,-4.739318415522575E-002,-5.667498707771301E-001,7.989261746406555E-001,
1.342600000000000E+009,7.860576361417770E-002,-4.195331782102585E-002,-5.464352369308472E-001,8.175059556961060E-001,7.860576361417770E-002,-4.195331782102585E-002,-5.464352369308472E-001,8.175059556961060E-001,
1.350966666666667E+009,9.507065266370773E-002,-4.665265977382660E-002,-5.131035447120667E-001,8.386526107788086E-001,9.507065266370773E-002,-4.665265977382660E-002,-5.131035447120667E-001,8.386526107788086E-001,
1.359333333333334E+009,1.090689972043037E-001,-6.104038655757904E-002,-5.026727914810181E-001,8.413308262825012E-001,1.090689972043037E-001,-6.104038655757904E-002,-5.026727914810181E-001,8.413308262825012E-001,
1.367700000000000E+009,1.083666831254959E-001,-8.420808613300324E-002,-4.854159653186798E-001,8.472498059272766E-001,1.083666831254959E-001,-8.420808613300324E-002,-4.854159653186798E-001,8.472498059272766E-001,
1.376066666666667E+009,1.008257195353508E-001,-1.048845723271370E-001,-4.696942269802094E-001,8.613179922103882E-001,1.008257195353508E-001,-1.048845723271370E-001,-4.696942269802094E-001,8.613179922103882E-001,
1.384433333333334E+009,8.121139556169510E-002,-1.233029440045357E-001,-4.438392519950867E-001,8.809134364128113E-001,8.121139556169510E-002,-1.233029440045357E-001,-4.438392519950867E-001,8.809134364128113E-001,
1.392800000000000E+009,5.786883085966110E-002,-1.278711557388306E-001,-4.319548308849335E-001,8.774920105934143E-001,5.786883085966110E-002,-1.278711557388306E-001,-4.319548308849335E-001,8.774920105934143E-001,
1.401166666666667E+009,3.657251223921776E-002,-1.207640990614891E-001,-4.085755050182343E-001,8.959288001060486E-001,3.657251223921776E-002,-1.207640990614891E-001,-4.085755050182343E-001,8.959288001060486E-001,
1.409533333333334E+009,2.149553969502449E-002,-1.053217872977257E-001,-3.783164620399475E-001,9.071120023727417E-001,2.149553969502449E-002,-1.053217872977257E-001,-3.783164620399475E-001,9.071120023727417E-001,
1.417900000000000E+009,1.879448257386684E-002,-8.292991667985916E-002,-3.644551932811737E-001,9.031068682670593E-001,1.879448257386684E-002,-8.292991667985916E-002,-3.644551932811737E-001,9.031068682670593E-001,
1.426266666666667E+009,2.875791862607002E-002,-6.867367029190064E-002,-3.310184776782990E-001,9.276530742645264E-001,2.875791862607002E-002,-6.867367029190064E-002,-3.310184776782990E-001,9.276530742645264E-001,
1.434633333333334E+009,4.590288922190666E-002,-6.040656566619873E-002,-2.971132993698120E-001,9.362223148345947E-001,4.590288922190666E-002,-6.040656566619873E-002,-2.971132993698120E-001,9.362223148345947E-001,
1.443000000000000E+009,6.333188712596893E-002,-6.449916213750839E-002,-2.782479524612427E-001,9.398333430290222E-001,6.333188712596893E-002,-6.449916213750839E-002,-2.782479524612427E-001,9.398333430290222E-001,
1.451366666666667E+009,7.607755810022354E-002,-7.903688400983810E-002,-2.448467165231705E-001,9.418656229972839E-001,7.607755810022354E-002,-7.903688400983810E-002,-2.448467165231705E-001,9.418656229972839E-001,
1.459733333333334E+009,7.973682135343552E-002,-1.032553687691689E-001,-2.275451123714447E-001,9.432368874549866E-001,7.973682135343552E-002,-1.032553687691689E-001,-2.275451123714447E-001,9.432368874549866E-001,
