% Version 1.00
%
%freq[Hz],re:Trc1_S11,im:Trc1_S11,re:Trc2_S21,im:Trc2_S21,re:Trc3_S11,im:Trc3_S11,re:Trc4_S21,im:Trc4_S21,
6.900000000000000E+008,-5.320123210549355E-002,1.936312415637076E-003,-4.989888668060303E-001,-8.504582047462463E-001,-5.320123210549355E-002,1.936312415637076E-003,-4.989888668060303E-001,-8.504582047462463E-001,
6.983666666666666E+008,-4.441922158002853E-002,2.079643076285720E-003,-5.227699875831604E-001,-8.411411643028259E-001,-4.441922158002853E-002,2.079643076285720E-003,-5.227699875831604E-001,-8.411411643028259E-001,
7.067333333333334E+008,-3.863253444433212E-002,-3.530472517013550E-003,-5.673916935920715E-001,-7.783818840980530E-001,-3.863253444433212E-002,-3.530472517013550E-003,-5.673916935920715E-001,-7.783818840980530E-001,
7.151000000000000E+008,-3.956641629338265E-002,-1.107097696512938E-002,-5.869527459144592E-001,-7.919632196426392E-001,-3.956641629338265E-002,-1.107097696512938E-002,-5.869527459144592E-001,-7.919632196426392E-001,
7.234666666666666E+008,-4.401393234729767E-002,-1.648226752877235E-002,-5.987904071807861E-001,-7.800480127334595E-001,-4.401393234729767E-002,-1.648226752877235E-002,-5.987904071807861E-001,-7.800480127334595E-001,
7.318333333333334E+008,-5.228507146239281E-002,-1.887791045010090E-002,-6.132857799530029E-001,-7.773606181144714E-001,-5.228507146239281E-002,-1.887791045010090E-002,-6.132857799530029E-001,-7.773606181144714E-001,
7.402000000000000E+008,-5.967551469802856E-002,-1.837136410176754E-002,-6.574115157127380E-001,-7.596694827079773E-001,-5.967551469802856E-002,-1.837136410176754E-002,-6.574115157127380E-001,-7.596694827079773E-001,
7.485666666666666E+008,-6.807757914066315E-002,-1.218083780258894E-002,-6.566683650016785E-001,-7.566834688186646E-001,-6.807757914066315E-002,-1.218083780258894E-002,-6.566683650016785E-001,-7.566834688186646E-001,
7.569333333333334E+008,-7.058419287204742E-002,-4.352312069386244E-003,-6.632039546966553E-001,-7.362846732139587E-001,-7.058419287204742E-002,-4.352312069386244E-003,-6.632039546966553E-001,-7.362846732139587E-001,
7.653000000000000E+008,-6.717830896377564E-002,3.439613385125995E-003,-6.820171475410461E-001,-7.171430587768555E-001,-6.717830896377564E-002,3.439613385125995E-003,-6.820171475410461E-001,-7.171430587768555E-001,
7.736666666666666E+008,-6.087988242506981E-002,9.229139424860477E-003,-7.138735651969910E-001,-6.901838183403015E-001,-6.087988242506981E-002,9.229139424860477E-003,-7.138735651969910E-001,-6.901838183403015E-001,
7.820333333333334E+008,-5.322390049695969E-002,1.208162494003773E-002,-7.267611622810364E-001,-6.780251264572144E-001,-5.322390049695969E-002,1.208162494003773E-002,-7.267611622810364E-001,-6.780251264572144E-001,
7.904000000000000E+008,-4.434181004762650E-002,1.090211700648069E-002,-7.315698862075806E-001,-6.564183831214905E-001,-4.434181004762650E-002,1.090211700648069E-002,-7.315698862075806E-001,-6.564183831214905E-001,
7.987666666666666E+008,-4.065076261758804E-002,5.437084008008242E-003,-7.668647170066834E-001,-6.358483433723450E-001,-4.065076261758804E-002,5.437084008008242E-003,-7.668647170066834E-001,-6.358483433723450E-001,
8.071333333333334E+008,-3.912016376852989E-002,5.766006652265787E-004,-7.707494497299194E-001,-6.234169602394104E-001,-3.912016376852989E-002,5.766006652265787E-004,-7.707494497299194E-001,-6.234169602394104E-001,
8.155000000000000E+008,-4.600240662693977E-002,-5.741779226809740E-003,-7.945095896720886E-001,-6.011142134666443E-001,-4.600240662693977E-002,-5.741779226809740E-003,-7.945095896720886E-001,-6.011142134666443E-001,
8.238666666666666E+008,-5.147040635347366E-002,-8.780335076153278E-003,-7.951750755310059E-001,-5.721787214279175E-001,-5.147040635347366E-002,-8.780335076153278E-003,-7.951750755310059E-001,-5.721787214279175E-001,
8.322333333333334E+008,-6.004323065280914E-002,-8.011888712644577E-003,-8.163673281669617E-001,-5.525996685028076E-001,-6.004323065280914E-002,-8.011888712644577E-003,-8.163673281669617E-001,-5.525996685028076E-001,
8.406000000000000E+008,-6.694082170724869E-002,-2.896130084991455E-003,-8.267822265625000E-001,-5.400206446647644E-001,-6.694082170724869E-002,-2.896130084991455E-003,-8.267822265625000E-001,-5.400206446647644E-001,
8.489666666666668E+008,-7.192253321409226E-002,3.776520490646362E-003,-8.368610739707947E-001,-5.249723196029663E-001,-7.192253321409226E-002,3.776520490646362E-003,-8.368610739707947E-001,-5.249723196029663E-001,
8.573333333333334E+008,-7.054040580987930E-002,1.168397255241871E-002,-8.541504144668579E-001,-4.859286248683929E-001,-7.054040580987930E-002,1.168397255241871E-002,-8.541504144668579E-001,-4.859286248683929E-001,
8.657000000000000E+008,-6.484938412904739E-002,1.969362236559391E-002,-8.714794516563416E-001,-4.652181267738342E-001,-6.484938412904739E-002,1.969362236559391E-002,-8.714794516563416E-001,-4.652181267738342E-001,
8.740666666666668E+008,-5.792658030986786E-002,2.265045419335365E-002,-8.693331480026245E-001,-4.541483223438263E-001,-5.792658030986786E-002,2.265045419335365E-002,-8.693331480026245E-001,-4.541483223438263E-001,
8.824333333333334E+008,-4.904866591095924E-002,2.229890227317810E-002,-8.880555033683777E-001,-4.385286867618561E-001,-4.904866591095924E-002,2.229890227317810E-002,-8.880555033683777E-001,-4.385286867618561E-001,
8.908000000000000E+008,-4.141333326697350E-002,1.824706979095936E-002,-8.881688714027405E-001,-4.053819179534912E-001,-4.141333326697350E-002,1.824706979095936E-002,-8.881688714027405E-001,-4.053819179534912E-001,
8.991666666666668E+008,-3.884435445070267E-002,1.195700000971556E-002,-9.031665921211243E-001,-3.795783519744873E-001,-3.884435445070267E-002,1.195700000971556E-002,-9.031665921211243E-001,-3.795783519744873E-001,
9.075333333333334E+008,-4.103911668062210E-002,5.947220139205456E-003,-9.333462119102478E-001,-3.591557443141937E-001,-4.103911668062210E-002,5.947220139205456E-003,-9.333462119102478E-001,-3.591557443141937E-001,
9.159000000000000E+008,-4.578242078423500E-002,4.750554915517569E-003,-9.380386471748352E-001,-3.305505812168121E-001,-4.578242078423500E-002,4.750554915517569E-003,-9.380386471748352E-001,-3.305505812168121E-001,
9.242666666666668E+008,-5.235805734992027E-002,2.871528500691056E-003,-9.436543583869934E-001,-3.140808641910553E-001,-5.235805734992027E-002,2.871528500691056E-003,-9.436543583869934E-001,-3.140808641910553E-001,
9.326333333333334E+008,-6.128856167197228E-002,4.627474583685398E-003,-9.635721445083618E-001,-2.910803556442261E-001,-6.128856167197228E-002,4.627474583685398E-003,-9.635721445083618E-001,-2.910803556442261E-001,
9.410000000000000E+008,-6.599719822406769E-002,9.950712323188782E-003,-9.562140107154846E-001,-2.591902911663055E-001,-6.599719822406769E-002,9.950712323188782E-003,-9.562140107154846E-001,-2.591902911663055E-001,
9.493666666666668E+008,-6.868375837802887E-002,1.759997196495533E-002,-9.543368816375732E-001,-2.413855344057083E-001,-6.868375837802887E-002,1.759997196495533E-002,-9.543368816375732E-001,-2.413855344057083E-001,
9.577333333333334E+008,-6.706203520298004E-002,2.660363912582398E-002,-9.695830941200256E-001,-2.191102355718613E-001,-6.706203520298004E-002,2.660363912582398E-002,-9.695830941200256E-001,-2.191102355718613E-001,
9.661000000000000E+008,-6.089845672249794E-002,3.454554080963135E-002,-9.682977795600891E-001,-1.943366378545761E-001,-6.089845672249794E-002,3.454554080963135E-002,-9.682977795600891E-001,-1.943366378545761E-001,
9.744666666666668E+008,-5.246698483824730E-002,3.578151762485504E-002,-9.754666686058044E-001,-1.712964177131653E-001,-5.246698483824730E-002,3.578151762485504E-002,-9.754666686058044E-001,-1.712964177131653E-001,
9.828333333333334E+008,-4.059555754065514E-002,3.346968814730644E-002,-9.790848493576050E-001,-1.497309505939484E-001,-4.059555754065514E-002,3.346968814730644E-002,-9.790848493576050E-001,-1.497309505939484E-001,
9.912000000000000E+008,-3.475670143961906E-002,2.750355191528797E-002,-9.786965250968933E-001,-1.214297562837601E-001,-3.475670143961906E-002,2.750355191528797E-002,-9.786965250968933E-001,-1.214297562837601E-001,
9.995666666666668E+008,-2.936398237943649E-002,2.043202891945839E-002,-9.946262240409851E-001,-8.336182683706284E-002,-2.936398237943649E-002,2.043202891945839E-002,-9.946262240409851E-001,-8.336182683706284E-002,
1.007933333333333E+009,-3.143599629402161E-002,1.235753763467073E-002,-9.911950826644898E-001,-6.851470470428467E-002,-3.143599629402161E-002,1.235753763467073E-002,-9.911950826644898E-001,-6.851470470428467E-002,
1.016300000000000E+009,-3.871103376150131E-002,8.217835798859596E-003,-9.924117922782898E-001,-4.047765582799912E-002,-3.871103376150131E-002,8.217835798859596E-003,-9.924117922782898E-001,-4.047765582799912E-002,
1.024666666666667E+009,-4.751031845808029E-002,3.442292567342520E-003,-9.934524893760681E-001,-8.453215472400188E-003,-4.751031845808029E-002,3.442292567342520E-003,-9.934524893760681E-001,-8.453215472400188E-003,
1.033033333333333E+009,-5.539392307400703E-002,8.217134512960911E-003,-9.917394518852234E-001,1.067142933607101E-002,-5.539392307400703E-002,8.217134512960911E-003,-9.917394518852234E-001,1.067142933607101E-002,
1.041400000000000E+009,-6.214547157287598E-002,1.563732139766216E-002,-9.772732853889465E-001,4.831050708889961E-002,-6.214547157287598E-002,1.563732139766216E-002,-9.772732853889465E-001,4.831050708889961E-002,
1.049766666666667E+009,-6.413517892360687E-002,2.547135390341282E-002,-9.881352186203003E-001,6.615614891052246E-002,-6.413517892360687E-002,2.547135390341282E-002,-9.881352186203003E-001,6.615614891052246E-002,
1.058133333333333E+009,-5.970529839396477E-002,3.341472148895264E-002,-9.845142960548401E-001,8.477047085762024E-002,-5.970529839396477E-002,3.341472148895264E-002,-9.845142960548401E-001,8.477047085762024E-002,
1.066500000000000E+009,-5.080635100603104E-002,3.952953591942787E-002,-9.919897913932800E-001,1.220141947269440E-001,-5.080635100603104E-002,3.952953591942787E-002,-9.919897913932800E-001,1.220141947269440E-001,
1.074866666666667E+009,-4.035640507936478E-002,3.770700097084045E-002,-9.747636318206787E-001,1.409080475568771E-001,-4.035640507936478E-002,3.770700097084045E-002,-9.747636318206787E-001,1.409080475568771E-001,
1.083233333333334E+009,-3.037890791893005E-002,2.850335277616978E-002,-9.735019207000732E-001,1.634595096111298E-001,-3.037890791893005E-002,2.850335277616978E-002,-9.735019207000732E-001,1.634595096111298E-001,
1.091600000000000E+009,-2.555675990879536E-002,1.909890398383141E-002,-9.647060036659241E-001,1.864385902881622E-001,-2.555675990879536E-002,1.909890398383141E-002,-9.647060036659241E-001,1.864385902881622E-001,
1.099966666666667E+009,-2.667165733873844E-002,7.535365410149097E-003,-9.670148491859436E-001,2.261300981044769E-001,-2.667165733873844E-002,7.535365410149097E-003,-9.670148491859436E-001,2.261300981044769E-001,
1.108333333333334E+009,-3.698162361979485E-002,-1.479439088143408E-003,-9.451470375061035E-001,2.287229746580124E-001,-3.698162361979485E-002,-1.479439088143408E-003,-9.451470375061035E-001,2.287229746580124E-001,
1.116700000000000E+009,-4.885613918304443E-002,8.435621857643127E-004,-9.430764913558960E-001,2.754899263381958E-001,-4.885613918304443E-002,8.435621857643127E-004,-9.430764913558960E-001,2.754899263381958E-001,
1.125066666666667E+009,-6.370081007480621E-002,3.259362187236548E-003,-9.469578266143799E-001,2.851114273071289E-001,-6.370081007480621E-002,3.259362187236548E-003,-9.469578266143799E-001,2.851114273071289E-001,
1.133433333333334E+009,-7.301311939954758E-002,1.762322522699833E-002,-9.457440376281738E-001,3.085331916809082E-001,-7.301311939954758E-002,1.762322522699833E-002,-9.457440376281738E-001,3.085331916809082E-001,
1.141800000000000E+009,-7.430214434862137E-002,3.116052411496639E-002,-9.179652333259583E-001,3.276533186435700E-001,-7.430214434862137E-002,3.116052411496639E-002,-9.179652333259583E-001,3.276533186435700E-001,
1.150166666666667E+009,-6.903555244207382E-002,4.789041355252266E-002,-9.035800099372864E-001,3.577461242675781E-001,-6.903555244207382E-002,4.789041355252266E-002,-9.035800099372864E-001,3.577461242675781E-001,
1.158533333333334E+009,-5.537189170718193E-002,5.622802302241325E-002,-9.051218032836914E-001,3.818142414093018E-001,-5.537189170718193E-002,5.622802302241325E-002,-9.051218032836914E-001,3.818142414093018E-001,
1.166900000000000E+009,-3.755593299865723E-002,5.647448077797890E-002,-8.964598178863525E-001,4.143687188625336E-001,-3.755593299865723E-002,5.647448077797890E-002,-8.964598178863525E-001,4.143687188625336E-001,
1.175266666666667E+009,-2.218096703290939E-002,4.576947167515755E-002,-8.875459432601929E-001,4.219530820846558E-001,-2.218096703290939E-002,4.576947167515755E-002,-8.875459432601929E-001,4.219530820846558E-001,
1.183633333333334E+009,-1.227672211825848E-002,3.092800453305244E-002,-8.770279884338379E-001,4.614793658256531E-001,-1.227672211825848E-002,3.092800453305244E-002,-8.770279884338379E-001,4.614793658256531E-001,
1.192000000000000E+009,-1.255107764154673E-002,1.136012282222509E-002,-8.668319582939148E-001,4.708823561668396E-001,-1.255107764154673E-002,1.136012282222509E-002,-8.668319582939148E-001,4.708823561668396E-001,
1.200366666666667E+009,-2.422638796269894E-002,-2.273745601996779E-003,-8.559145331382752E-001,4.990309774875641E-001,-2.422638796269894E-002,-2.273745601996779E-003,-8.559145331382752E-001,4.990309774875641E-001,
1.208733333333334E+009,-4.064397886395454E-002,-1.039902959018946E-002,-8.490230441093445E-001,5.167057514190674E-001,-4.064397886395454E-002,-1.039902959018946E-002,-8.490230441093445E-001,5.167057514190674E-001,
1.217100000000000E+009,-5.911632999777794E-002,-3.456121776252985E-003,-8.310891389846802E-001,5.347669124603272E-001,-5.911632999777794E-002,-3.456121776252985E-003,-8.310891389846802E-001,5.347669124603272E-001,
1.225466666666667E+009,-6.995768845081329E-002,8.927478455007076E-003,-8.052745461463928E-001,5.621930360794067E-001,-6.995768845081329E-002,8.927478455007076E-003,-8.052745461463928E-001,5.621930360794067E-001,
1.233833333333334E+009,-7.673721760511398E-002,2.610469795763493E-002,-7.889585494995117E-001,5.782919526100159E-001,-7.673721760511398E-002,2.610469795763493E-002,-7.889585494995117E-001,5.782919526100159E-001,
1.242200000000000E+009,-7.349553704261780E-002,4.444532841444016E-002,-7.753182053565979E-001,5.888401865959168E-001,-7.349553704261780E-002,4.444532841444016E-002,-7.753182053565979E-001,5.888401865959168E-001,
1.250566666666667E+009,-5.906003713607788E-002,5.566952377557755E-002,-7.498770356178284E-001,6.173219680786133E-001,-5.906003713607788E-002,5.566952377557755E-002,-7.498770356178284E-001,6.173219680786133E-001,
1.258933333333334E+009,-4.054891318082809E-002,5.796979740262032E-002,-7.601562738418579E-001,6.383793354034424E-001,-4.054891318082809E-002,5.796979740262032E-002,-7.601562738418579E-001,6.383793354034424E-001,
1.267300000000000E+009,-2.338104322552681E-002,4.804392904043198E-002,-7.413086295127869E-001,6.511983871459961E-001,-2.338104322552681E-002,4.804392904043198E-002,-7.413086295127869E-001,6.511983871459961E-001,
1.275666666666667E+009,-1.469112560153008E-002,2.929135970771313E-002,-7.080246806144714E-001,6.760472655296326E-001,-1.469112560153008E-002,2.929135970771313E-002,-7.080246806144714E-001,6.760472655296326E-001,
1.284033333333334E+009,-1.632055640220642E-002,9.000973775982857E-003,-6.998442411422730E-001,6.987937688827515E-001,-1.632055640220642E-002,9.000973775982857E-003,-6.998442411422730E-001,6.987937688827515E-001,
1.292400000000000E+009,-2.860114909708500E-002,-6.861242465674877E-003,-6.851269006729126E-001,7.150925397872925E-001,-2.860114909708500E-002,-6.861242465674877E-003,-6.851269006729126E-001,7.150925397872925E-001,
1.300766666666667E+009,-4.751973971724510E-002,-1.434509363025427E-002,-6.596190929412842E-001,7.308863401412964E-001,-4.751973971724510E-002,-1.434509363025427E-002,-6.596190929412842E-001,7.308863401412964E-001,
1.309133333333334E+009,-6.822074949741364E-002,-8.964335545897484E-003,-6.446655988693237E-001,7.462226748466492E-001,-6.822074949741364E-002,-8.964335545897484E-003,-6.446655988693237E-001,7.462226748466492E-001,
1.317500000000000E+009,-8.283253759145737E-002,6.026812363415957E-003,-6.206233501434326E-001,7.592453956604004E-001,-8.283253759145737E-002,6.026812363415957E-003,-6.206233501434326E-001,7.592453956604004E-001,
1.325866666666667E+009,-8.683474361896515E-002,2.740943990647793E-002,-6.049862504005432E-001,7.722359895706177E-001,-8.683474361896515E-002,2.740943990647793E-002,-6.049862504005432E-001,7.722359895706177E-001,
1.334233333333334E+009,-8.003854751586914E-002,4.626122489571571E-002,-5.779600739479065E-001,7.907630801200867E-001,-8.003854751586914E-002,4.626122489571571E-002,-5.779600739479065E-001,7.907630801200867E-001,
1.342600000000000E+009,-6.597261875867844E-002,5.669547617435455E-002,-5.609464049339294E-001,8.078027963638306E-001,-6.597261875867844E-002,5.669547617435455E-002,-5.609464049339294E-001,8.078027963638306E-001,
1.350966666666667E+009,-4.807111993432045E-002,5.703713744878769E-002,-5.315826535224915E-001,8.342245221138001E-001,-4.807111993432045E-002,5.703713744878769E-002,-5.315826535224915E-001,8.342245221138001E-001,
1.359333333333334E+009,-3.411120176315308E-002,4.646953195333481E-002,-5.207760334014893E-001,8.367366194725037E-001,-3.411120176315308E-002,4.646953195333481E-002,-5.207760334014893E-001,8.367366194725037E-001,
1.367700000000000E+009,-3.036475554108620E-002,2.632390707731247E-002,-5.028026103973389E-001,8.466838002204895E-001,-3.036475554108620E-002,2.632390707731247E-002,-5.028026103973389E-001,8.466838002204895E-001,
1.376066666666667E+009,-3.585941717028618E-002,9.118539281189442E-003,-4.844186305999756E-001,8.656891584396362E-001,-3.585941717028618E-002,9.118539281189442E-003,-4.844186305999756E-001,8.656891584396362E-001,
1.384433333333334E+009,-5.344781652092934E-002,-5.939844530075789E-003,-4.574164450168610E-001,8.867949843406677E-001,-5.344781652092934E-002,-5.939844530075789E-003,-4.574164450168610E-001,8.867949843406677E-001,
1.392800000000000E+009,-7.524406909942627E-002,-6.615452934056521E-003,-4.413774907588959E-001,8.817619085311890E-001,-7.524406909942627E-002,-6.615452934056521E-003,-4.413774907588959E-001,8.817619085311890E-001,
1.401166666666667E+009,-9.589564800262451E-002,5.113433115184307E-003,-4.155460000038147E-001,8.984391689300537E-001,-9.589564800262451E-002,5.113433115184307E-003,-4.155460000038147E-001,8.984391689300537E-001,
1.409533333333334E+009,-1.071944385766983E-001,2.298487909138203E-002,-3.833889365196228E-001,9.052446484565735E-001,-1.071944385766983E-001,2.298487909138203E-002,-3.833889365196228E-001,9.052446484565735E-001,
1.417900000000000E+009,-1.078557223081589E-001,4.954021796584129E-002,-3.710730075836182E-001,8.976420164108276E-001,-1.078557223081589E-001,4.954021796584129E-002,-3.710730075836182E-001,8.976420164108276E-001,
1.426266666666667E+009,-9.528041630983353E-002,6.921695172786713E-002,-3.406566679477692E-001,9.219912886619568E-001,-9.528041630983353E-002,6.921695172786713E-002,-3.406566679477692E-001,9.219912886619568E-001,
1.434633333333334E+009,-7.669617980718613E-002,8.102472871541977E-002,-3.106575310230255E-001,9.296703338623047E-001,-7.669617980718613E-002,8.102472871541977E-002,-3.106575310230255E-001,9.296703338623047E-001,
1.443000000000000E+009,-5.574603378772736E-002,8.161327242851257E-002,-2.960770726203919E-001,9.362548589706421E-001,-5.574603378772736E-002,8.161327242851257E-002,-2.960770726203919E-001,9.362548589706421E-001,
1.451366666666667E+009,-3.984109312295914E-002,6.994453072547913E-002,-2.669069468975067E-001,9.402602314949036E-001,-3.984109312295914E-002,6.994453072547913E-002,-2.669069468975067E-001,9.402602314949036E-001,
1.459733333333334E+009,-3.257112950086594E-002,5.012773349881172E-002,-2.480903267860413E-001,9.484218358993530E-001,-3.257112950086594E-002,5.012773349881172E-002,-2.480903267860413E-001,9.484218358993530E-001,
