% Version 1.00
%
%freq[Hz],re:Trc1_S11,im:Trc1_S11,re:Trc2_S21,im:Trc2_S21,re:Trc3_S11,im:Trc3_S11,re:Trc4_S21,im:Trc4_S21,
6.900000000000000E+008,-3.713860362768173E-002,6.203128397464752E-002,-5.057351589202881E-001,-8.458150625228882E-001,-3.713860362768173E-002,6.203128397464752E-002,-5.057351589202881E-001,-8.458150625228882E-001,
6.983666666666666E+008,-2.662595547735691E-002,6.346097588539124E-002,-5.285132527351379E-001,-8.368099927902222E-001,-2.662595547735691E-002,6.346097588539124E-002,-5.285132527351379E-001,-8.368099927902222E-001,
7.067333333333334E+008,-1.913959905505180E-002,5.898340046405792E-002,-5.728728175163269E-001,-7.747796177864075E-001,-1.913959905505180E-002,5.898340046405792E-002,-5.728728175163269E-001,-7.747796177864075E-001,
7.151000000000000E+008,-1.697346754372120E-002,5.205797031521797E-002,-5.922800302505493E-001,-7.876616716384888E-001,-1.697346754372120E-002,5.205797031521797E-002,-5.922800302505493E-001,-7.876616716384888E-001,
7.234666666666666E+008,-1.891864277422428E-002,4.718913882970810E-002,-6.039171814918518E-001,-7.757275104522705E-001,-1.891864277422428E-002,4.718913882970810E-002,-6.039171814918518E-001,-7.757275104522705E-001,
7.318333333333334E+008,-2.462754771113396E-002,4.542381688952446E-002,-6.191768050193787E-001,-7.733559608459473E-001,-2.462754771113396E-002,4.542381688952446E-002,-6.191768050193787E-001,-7.733559608459473E-001,
7.402000000000000E+008,-3.030436486005783E-002,4.609192162752152E-002,-6.638332605361939E-001,-7.554345726966858E-001,-3.030436486005783E-002,4.609192162752152E-002,-6.638332605361939E-001,-7.554345726966858E-001,
7.485666666666666E+008,-3.625632449984551E-002,5.268468335270882E-002,-6.625705957412720E-001,-7.510807514190674E-001,-3.625632449984551E-002,5.268468335270882E-002,-6.625705957412720E-001,-7.510807514190674E-001,
7.569333333333334E+008,-3.675556927919388E-002,6.102893501520157E-002,-6.702417135238648E-001,-7.302135229110718E-001,-3.675556927919388E-002,6.102893501520157E-002,-6.702417135238648E-001,-7.302135229110718E-001,
7.653000000000000E+008,-3.103115595877171E-002,6.905788183212280E-002,-6.877179741859436E-001,-7.096428871154785E-001,-3.103115595877171E-002,6.905788183212280E-002,-6.877179741859436E-001,-7.096428871154785E-001,
7.736666666666666E+008,-2.358134649693966E-002,7.553252577781677E-002,-7.202154994010925E-001,-6.837699413299561E-001,-2.358134649693966E-002,7.553252577781677E-002,-7.202154994010925E-001,-6.837699413299561E-001,
7.820333333333334E+008,-1.341073215007782E-002,7.857067883014679E-002,-7.316024899482727E-001,-6.704663634300232E-001,-1.341073215007782E-002,7.857067883014679E-002,-7.316024899482727E-001,-6.704663634300232E-001,
7.904000000000000E+008,-1.899268128909171E-003,7.768572866916657E-002,-7.357465624809265E-001,-6.490426063537598E-001,-1.899268128909171E-003,7.768572866916657E-002,-7.357465624809265E-001,-6.490426063537598E-001,
7.987666666666666E+008,4.091496113687754E-003,7.222796231508255E-002,-7.700325846672058E-001,-6.280423998832703E-001,4.091496113687754E-003,7.222796231508255E-002,-7.700325846672058E-001,-6.280423998832703E-001,
8.071333333333334E+008,8.521089330315590E-003,6.714675575494766E-002,-7.751406431198120E-001,-6.165487766265869E-001,8.521089330315590E-003,6.714675575494766E-002,-7.751406431198120E-001,-6.165487766265869E-001,
8.155000000000000E+008,3.975129686295986E-003,6.121312454342842E-002,-7.981517314910889E-001,-5.945324301719666E-001,3.975129686295986E-003,6.121312454342842E-002,-7.981517314910889E-001,-5.945324301719666E-001,
8.238666666666666E+008,1.645639771595597E-003,5.728139728307724E-002,-7.993651628494263E-001,-5.649588704109192E-001,1.645639771595597E-003,5.728139728307724E-002,-7.993651628494263E-001,-5.649588704109192E-001,
8.322333333333334E+008,-4.474222660064697E-003,5.822224915027618E-002,-8.207799792289734E-001,-5.451072454452515E-001,-4.474222660064697E-003,5.822224915027618E-002,-8.207799792289734E-001,-5.451072454452515E-001,
8.406000000000000E+008,-8.796782232820988E-003,6.232157722115517E-002,-8.317531943321228E-001,-5.317690968513489E-001,-8.796782232820988E-003,6.232157722115517E-002,-8.317531943321228E-001,-5.317690968513489E-001,
8.489666666666668E+008,-1.139282528311014E-002,7.010385394096375E-002,-8.419454097747803E-001,-5.162166357040405E-001,-1.139282528311014E-002,7.010385394096375E-002,-8.419454097747803E-001,-5.162166357040405E-001,
8.573333333333334E+008,-8.576425723731518E-003,7.789371162652969E-002,-8.583952188491821E-001,-4.752836227416992E-001,-8.576425723731518E-003,7.789371162652969E-002,-8.583952188491821E-001,-4.752836227416992E-001,
8.657000000000000E+008,1.720506581477821E-003,8.507276326417923E-002,-8.743698596954346E-001,-4.551887512207031E-001,1.720506581477821E-003,8.507276326417923E-002,-8.743698596954346E-001,-4.551887512207031E-001,
8.740666666666668E+008,1.059530675411224E-002,8.735797554254532E-002,-8.723415136337280E-001,-4.426591992378235E-001,1.059530675411224E-002,8.735797554254532E-002,-8.723415136337280E-001,-4.426591992378235E-001,
8.824333333333334E+008,2.155640162527561E-002,8.626855909824371E-002,-8.891862630844116E-001,-4.274692535400391E-001,2.155640162527561E-002,8.626855909824371E-002,-8.891862630844116E-001,-4.274692535400391E-001,
8.908000000000000E+008,3.180814161896706E-002,8.081790804862976E-002,-8.891474604606628E-001,-3.961794674396515E-001,3.180814161896706E-002,8.081790804862976E-002,-8.891474604606628E-001,-3.961794674396515E-001,
8.991666666666668E+008,3.631366416811943E-002,7.339279353618622E-002,-9.042114019393921E-001,-3.687397837638855E-001,3.631366416811943E-002,7.339279353618622E-002,-9.042114019393921E-001,-3.687397837638855E-001,
9.075333333333334E+008,3.788498416543007E-002,6.660284101963043E-002,-9.339213967323303E-001,-3.493019342422485E-001,3.788498416543007E-002,6.660284101963043E-002,-9.339213967323303E-001,-3.493019342422485E-001,
9.159000000000000E+008,3.617971017956734E-002,6.378850340843201E-002,-9.399313330650330E-001,-3.211391270160675E-001,3.617971017956734E-002,6.378850340843201E-002,-9.399313330650330E-001,-3.211391270160675E-001,
9.242666666666668E+008,3.199857473373413E-002,6.052407994866371E-002,-9.449033737182617E-001,-3.067356050014496E-001,3.199857473373413E-002,6.052407994866371E-002,-9.449033737182617E-001,-3.067356050014496E-001,
9.326333333333334E+008,2.553781867027283E-002,6.161553785204887E-002,-9.657707810401917E-001,-2.823397517204285E-001,2.553781867027283E-002,6.161553785204887E-002,-9.657707810401917E-001,-2.823397517204285E-001,
9.410000000000000E+008,2.320863492786884E-002,6.615538150072098E-002,-9.582625031471252E-001,-2.484810054302216E-001,2.320863492786884E-002,6.615538150072098E-002,-9.582625031471252E-001,-2.484810054302216E-001,
9.493666666666668E+008,2.380990982055664E-002,7.241293042898178E-002,-9.560022354125977E-001,-2.302166819572449E-001,2.380990982055664E-002,7.241293042898178E-002,-9.560022354125977E-001,-2.302166819572449E-001,
9.577333333333334E+008,2.780066616833210E-002,8.035602420568466E-002,-9.720861911773682E-001,-2.065668851137161E-001,2.780066616833210E-002,8.035602420568466E-002,-9.720861911773682E-001,-2.065668851137161E-001,
9.661000000000000E+008,3.826298564672470E-002,8.641705662012100E-002,-9.691886305809021E-001,-1.821521073579788E-001,3.826298564672470E-002,8.641705662012100E-002,-9.691886305809021E-001,-1.821521073579788E-001,
9.744666666666668E+008,4.726774618029594E-002,8.514730632305145E-002,-9.736288189888001E-001,-1.573795974254608E-001,4.726774618029594E-002,8.514730632305145E-002,-9.736288189888001E-001,-1.573795974254608E-001,
9.828333333333334E+008,6.146734207868576E-002,8.086933940649033E-002,-9.756990075111389E-001,-1.368587017059326E-001,6.146734207868576E-002,8.086933940649033E-002,-9.756990075111389E-001,-1.368587017059326E-001,
9.912000000000000E+008,6.965936720371246E-002,7.329737395048142E-002,-9.753085374832153E-001,-1.099539399147034E-001,6.965936720371246E-002,7.329737395048142E-002,-9.753085374832153E-001,-1.099539399147034E-001,
9.995666666666668E+008,7.655921578407288E-002,6.289857625961304E-002,-9.903061389923096E-001,-7.181182503700256E-002,7.655921578407288E-002,6.289857625961304E-002,-9.903061389923096E-001,-7.181182503700256E-002,
1.007933333333333E+009,7.745835930109024E-002,5.319287255406380E-002,-9.879798293113709E-001,-5.692052468657494E-002,7.745835930109024E-002,5.319287255406380E-002,-9.879798293113709E-001,-5.692052468657494E-002,
1.016300000000000E+009,7.263196259737015E-002,4.695883393287659E-002,-9.892479777336121E-001,-3.084933944046497E-002,7.263196259737015E-002,4.695883393287659E-002,-9.892479777336121E-001,-3.084933944046497E-002,
1.024666666666667E+009,6.654098629951477E-002,4.081851243972778E-002,-9.886021614074707E-001,2.492752391844988E-003,6.654098629951477E-002,4.081851243972778E-002,-9.886021614074707E-001,2.492752391844988E-003,
1.033033333333333E+009,6.095040962100029E-002,4.321913421154022E-002,-9.875869750976563E-001,2.164771594107151E-002,6.095040962100029E-002,4.321913421154022E-002,-9.875869750976563E-001,2.164771594107151E-002,
1.041400000000000E+009,5.626950785517693E-002,4.851669073104858E-002,-9.724094867706299E-001,5.988100171089172E-002,5.626950785517693E-002,4.851669073104858E-002,-9.724094867706299E-001,5.988100171089172E-002,
1.049766666666667E+009,5.715576559305191E-002,5.570307001471520E-002,-9.841388463973999E-001,7.910654693841934E-002,5.715576559305191E-002,5.570307001471520E-002,-9.841388463973999E-001,7.910654693841934E-002,
1.058133333333333E+009,6.376721709966660E-002,6.089282408356667E-002,-9.775503873825073E-001,9.806136041879654E-002,6.376721709966660E-002,6.089282408356667E-002,-9.775503873825073E-001,9.806136041879654E-002,
1.066500000000000E+009,7.586257159709930E-002,6.318242102861404E-002,-9.832018017768860E-001,1.368002742528915E-001,7.586257159709930E-002,6.318242102861404E-002,-9.832018017768860E-001,1.368002742528915E-001,
1.074866666666667E+009,8.608889579772949E-002,5.973995476961136E-002,-9.648582339286804E-001,1.526925861835480E-001,8.608889579772949E-002,5.973995476961136E-002,-9.648582339286804E-001,1.526925861835480E-001,
1.083233333333334E+009,9.719876945018768E-002,4.671826958656311E-002,-9.630304574966431E-001,1.735338419675827E-001,9.719876945018768E-002,4.671826958656311E-002,-9.630304574966431E-001,1.735338419675827E-001,
1.091600000000000E+009,1.033726185560226E-001,3.545773029327393E-002,-9.536978602409363E-001,1.950919777154923E-001,1.033726185560226E-001,3.545773029327393E-002,-9.536978602409363E-001,1.950919777154923E-001,
1.099966666666667E+009,1.055996790528297E-001,2.010666020214558E-002,-9.564867615699768E-001,2.328976690769196E-001,1.055996790528297E-001,2.010666020214558E-002,-9.564867615699768E-001,2.328976690769196E-001,
1.108333333333334E+009,9.735673666000366E-002,8.971602655947208E-003,-9.356927871704102E-001,2.360827773809433E-001,9.735673666000366E-002,8.971602655947208E-003,-9.356927871704102E-001,2.360827773809433E-001,
1.116700000000000E+009,8.456490933895111E-002,7.144511677324772E-003,-9.349604249000549E-001,2.811965942382813E-001,8.456490933895111E-002,7.144511677324772E-003,-9.349604249000549E-001,2.811965942382813E-001,
1.125066666666667E+009,7.387675344944000E-002,7.437917403876782E-003,-9.394252300262451E-001,2.917064428329468E-001,7.387675344944000E-002,7.437917403876782E-003,-9.394252300262451E-001,2.917064428329468E-001,
1.133433333333334E+009,6.617794185876846E-002,1.812920346856117E-002,-9.392700195312500E-001,3.172449171543121E-001,6.617794185876846E-002,1.812920346856117E-002,-9.392700195312500E-001,3.172449171543121E-001,
1.141800000000000E+009,6.646794825792313E-002,2.820529602468014E-002,-9.111837744712830E-001,3.380919992923737E-001,6.646794825792313E-002,2.820529602468014E-002,-9.111837744712830E-001,3.380919992923737E-001,
1.150166666666667E+009,7.421179115772247E-002,4.078644141554833E-002,-8.931882381439209E-001,3.690858483314514E-001,7.421179115772247E-002,4.078644141554833E-002,-8.931882381439209E-001,3.690858483314514E-001,
1.158533333333334E+009,8.864884078502655E-002,4.577627032995224E-002,-8.943334221839905E-001,3.937073945999146E-001,8.864884078502655E-002,4.577627032995224E-002,-8.943334221839905E-001,3.937073945999146E-001,
1.166900000000000E+009,1.078148856759071E-001,4.212029650807381E-002,-8.834750056266785E-001,4.262560606002808E-001,1.078148856759071E-001,4.212029650807381E-002,-8.834750056266785E-001,4.262560606002808E-001,
1.175266666666667E+009,1.214229762554169E-001,2.751784212887287E-002,-8.728058338165283E-001,4.302532672882080E-001,1.214229762554169E-001,2.751784212887287E-002,-8.728058338165283E-001,4.302532672882080E-001,
1.183633333333334E+009,1.316857486963272E-001,9.082475677132607E-003,-8.607450723648071E-001,4.679544568061829E-001,1.316857486963272E-001,9.082475677132607E-003,-8.607450723648071E-001,4.679544568061829E-001,
1.192000000000000E+009,1.316687762737274E-001,-1.327642332762480E-002,-8.500891327857971E-001,4.739777743816376E-001,1.316687762737274E-001,-1.327642332762480E-002,-8.500891327857971E-001,4.739777743816376E-001,
1.200366666666667E+009,1.208325698971748E-001,-3.002319671213627E-002,-8.415302038192749E-001,5.005517005920410E-001,1.208325698971748E-001,-3.002319671213627E-002,-8.415302038192749E-001,5.005517005920410E-001,
1.208733333333334E+009,1.059553027153015E-001,-4.061236605048180E-002,-8.361332416534424E-001,5.174365639686585E-001,1.059553027153015E-001,-4.061236605048180E-002,-8.361332416534424E-001,5.174365639686585E-001,
1.217100000000000E+009,8.895633369684219E-002,-3.877722471952438E-002,-8.217063546180725E-001,5.383204817771912E-001,8.895633369684219E-002,-3.877722471952438E-002,-8.217063546180725E-001,5.383204817771912E-001,
1.225466666666667E+009,7.854818552732468E-002,-3.241735696792603E-002,-7.961679100990295E-001,5.651729106903076E-001,7.854818552732468E-002,-3.241735696792603E-002,-7.961679100990295E-001,5.651729106903076E-001,
1.233833333333334E+009,7.251897454261780E-002,-1.747385971248150E-002,-7.799004912376404E-001,5.839074254035950E-001,7.251897454261780E-002,-1.747385971248150E-002,-7.799004912376404E-001,5.839074254035950E-001,
1.242200000000000E+009,7.709983736276627E-002,-3.068298799917102E-003,-7.650184631347656E-001,5.974296331405640E-001,7.709983736276627E-002,-3.068298799917102E-003,-7.650184631347656E-001,5.974296331405640E-001,
1.250566666666667E+009,9.199348837137222E-002,3.646532539278269E-003,-7.366875410079956E-001,6.249730587005615E-001,9.199348837137222E-002,3.646532539278269E-003,-7.366875410079956E-001,6.249730587005615E-001,
1.258933333333334E+009,1.088769435882568E-001,8.212085231207311E-004,-7.455392479896545E-001,6.446117162704468E-001,1.088769435882568E-001,8.212085231207311E-004,-7.455392479896545E-001,6.446117162704468E-001,
1.267300000000000E+009,1.245821863412857E-001,-1.375203765928745E-002,-7.239331007003784E-001,6.564290523529053E-001,1.245821863412857E-001,-1.375203765928745E-002,-7.239331007003784E-001,6.564290523529053E-001,
1.275666666666667E+009,1.326185315847397E-001,-3.416348248720169E-002,-6.897174119949341E-001,6.781551837921143E-001,1.326185315847397E-001,-3.416348248720169E-002,-6.897174119949341E-001,6.781551837921143E-001,
1.284033333333334E+009,1.296505331993103E-001,-5.826630815863609E-002,-6.819133758544922E-001,6.960072517395020E-001,1.296505331993103E-001,-5.826630815863609E-002,-6.819133758544922E-001,6.960072517395020E-001,
1.292400000000000E+009,1.172906905412674E-001,-7.831075042486191E-002,-6.710840463638306E-001,7.101665735244751E-001,1.172906905412674E-001,-7.831075042486191E-002,-6.710840463638306E-001,7.101665735244751E-001,
1.300766666666667E+009,9.808769822120667E-002,-8.773684501647949E-002,-6.483234167098999E-001,7.256531715393066E-001,9.808769822120667E-002,-8.773684501647949E-002,-6.483234167098999E-001,7.256531715393066E-001,
1.309133333333334E+009,7.619547843933106E-002,-8.804974704980850E-002,-6.369694471359253E-001,7.429370284080505E-001,7.619547843933106E-002,-8.804974704980850E-002,-6.369694471359253E-001,7.429370284080505E-001,
1.317500000000000E+009,6.357108801603317E-002,-7.810571789741516E-002,-6.122378706932068E-001,7.577189803123474E-001,6.357108801603317E-002,-7.810571789741516E-002,-6.122378706932068E-001,7.577189803123474E-001,
1.325866666666667E+009,5.735837295651436E-002,-6.101338937878609E-002,-5.966126322746277E-001,7.733122110366821E-001,5.735837295651436E-002,-6.101338937878609E-002,-5.966126322746277E-001,7.733122110366821E-001,
1.334233333333334E+009,6.340375542640686E-002,-4.628519713878632E-002,-5.675330162048340E-001,7.945284247398377E-001,6.340375542640686E-002,-4.628519713878632E-002,-5.675330162048340E-001,7.945284247398377E-001,
1.342600000000000E+009,7.604399323463440E-002,-4.048030078411102E-002,-5.471016764640808E-001,8.128502964973450E-001,7.604399323463440E-002,-4.048030078411102E-002,-5.471016764640808E-001,8.128502964973450E-001,
1.350966666666667E+009,9.251278638839722E-002,-4.488155245780945E-002,-5.142431855201721E-001,8.351715803146362E-001,9.251278638839722E-002,-4.488155245780945E-002,-5.142431855201721E-001,8.351715803146362E-001,
1.359333333333334E+009,1.065786629915237E-001,-5.854681506752968E-002,-5.028438568115234E-001,8.353780508041382E-001,1.065786629915237E-001,-5.854681506752968E-002,-5.028438568115234E-001,8.353780508041382E-001,
1.367700000000000E+009,1.057404205203056E-001,-8.118222653865814E-002,-4.857605695724487E-001,8.428665399551392E-001,1.057404205203056E-001,-8.118222653865814E-002,-4.857605695724487E-001,8.428665399551392E-001,
1.376066666666667E+009,9.833349287509918E-002,-1.014530211687088E-001,-4.697919189929962E-001,8.574995398521423E-001,9.833349287509918E-002,-1.014530211687088E-001,-4.697919189929962E-001,8.574995398521423E-001,
1.384433333333334E+009,7.913588732481003E-002,-1.201319992542267E-001,-4.446018040180206E-001,8.776160478591919E-001,7.913588732481003E-002,-1.201319992542267E-001,-4.446018040180206E-001,8.776160478591919E-001,
1.392800000000000E+009,5.597545206546783E-002,-1.250619292259216E-001,-4.323585629463196E-001,8.721833825111389E-001,5.597545206546783E-002,-1.250619292259216E-001,-4.323585629463196E-001,8.721833825111389E-001,
1.401166666666667E+009,3.497216105461121E-002,-1.184447035193443E-001,-4.088492095470429E-001,8.912088871002197E-001,3.497216105461121E-002,-1.184447035193443E-001,-4.088492095470429E-001,8.912088871002197E-001,
1.409533333333334E+009,1.995646767318249E-002,-1.034327149391174E-001,-3.785151243209839E-001,9.025474786758423E-001,1.995646767318249E-002,-1.034327149391174E-001,-3.785151243209839E-001,9.025474786758423E-001,
1.417900000000000E+009,1.703639328479767E-002,-8.113548904657364E-002,-3.652618527412415E-001,8.983326554298401E-001,1.703639328479767E-002,-8.113548904657364E-002,-3.652618527412415E-001,8.983326554298401E-001,
1.426266666666667E+009,2.691778540611267E-002,-6.683289259672165E-002,-3.316086530685425E-001,9.229066967964172E-001,2.691778540611267E-002,-6.683289259672165E-002,-3.316086530685425E-001,9.229066967964172E-001,
1.434633333333334E+009,4.409019649028778E-002,-5.812780559062958E-002,-2.969366014003754E-001,9.317739009857178E-001,4.409019649028778E-002,-5.812780559062958E-002,-2.969366014003754E-001,9.317739009857178E-001,
1.443000000000000E+009,6.159204244613648E-002,-6.217646598815918E-002,-2.790313065052033E-001,9.350522160530090E-001,6.159204244613648E-002,-6.217646598815918E-002,-2.790313065052033E-001,9.350522160530090E-001,
1.451366666666667E+009,7.468609511852264E-002,-7.616361975669861E-002,-2.466810643672943E-001,9.367592930793762E-001,7.468609511852264E-002,-7.616361975669861E-002,-2.466810643672943E-001,9.367592930793762E-001,
1.459733333333334E+009,7.885225117206574E-002,-9.979046136140823E-002,-2.301388233900070E-001,9.380734562873840E-001,7.885225117206574E-002,-9.979046136140823E-002,-2.301388233900070E-001,9.380734562873840E-001,
