% Version 1.00
%
%freq[Hz],re:Trc1_S11,im:Trc1_S11,re:Trc2_S21,im:Trc2_S21,re:Trc3_S11,im:Trc3_S11,re:Trc4_S21,im:Trc4_S21,
6.900000000000000E+008,-3.127432987093926E-002,5.681101232767105E-002,-5.011957287788391E-001,-8.489757180213928E-001,-3.127432987093926E-002,5.681101232767105E-002,-5.011957287788391E-001,-8.489757180213928E-001,
6.983666666666666E+008,-2.104527503252029E-002,5.816837772727013E-002,-5.256661772727966E-001,-8.368210792541504E-001,-2.104527503252029E-002,5.816837772727013E-002,-5.256661772727966E-001,-8.368210792541504E-001,
7.067333333333334E+008,-1.442337688058615E-002,5.290775001049042E-002,-5.674862861633301E-001,-7.786726355552673E-001,-1.442337688058615E-002,5.290775001049042E-002,-5.674862861633301E-001,-7.786726355552673E-001,
7.151000000000000E+008,-1.370042189955711E-002,4.597924649715424E-002,-5.902888178825378E-001,-7.918689250946045E-001,-1.370042189955711E-002,4.597924649715424E-002,-5.902888178825378E-001,-7.918689250946045E-001,
7.234666666666666E+008,-1.557323615998030E-002,4.016348347067833E-002,-5.974544882774353E-001,-7.822735905647278E-001,-1.557323615998030E-002,4.016348347067833E-002,-5.974544882774353E-001,-7.822735905647278E-001,
7.318333333333334E+008,-2.152226120233536E-002,3.911842778325081E-002,-6.180609464645386E-001,-7.723651528358460E-001,-2.152226120233536E-002,3.911842778325081E-002,-6.180609464645386E-001,-7.723651528358460E-001,
7.402000000000000E+008,-2.749885618686676E-002,3.948684781789780E-002,-6.589600443840027E-001,-7.592022418975830E-001,-2.749885618686676E-002,3.948684781789780E-002,-6.589600443840027E-001,-7.592022418975830E-001,
7.485666666666666E+008,-3.351018205285072E-002,4.546672850847244E-002,-6.567768454551697E-001,-7.597658634185791E-001,-3.351018205285072E-002,4.546672850847244E-002,-6.567768454551697E-001,-7.597658634185791E-001,
7.569333333333334E+008,-3.410501033067703E-002,5.401088297367096E-002,-6.651864051818848E-001,-7.384966015815735E-001,-3.410501033067703E-002,5.401088297367096E-002,-6.651864051818848E-001,-7.384966015815735E-001,
7.653000000000000E+008,-2.760562673211098E-002,6.188169866800308E-002,-6.841897368431091E-001,-7.185661792755127E-001,-2.760562673211098E-002,6.188169866800308E-002,-6.841897368431091E-001,-7.185661792755127E-001,
7.736666666666666E+008,-1.928095892071724E-002,6.802125275135040E-002,-7.179507613182068E-001,-6.928981542587280E-001,-1.928095892071724E-002,6.802125275135040E-002,-7.179507613182068E-001,-6.928981542587280E-001,
7.820333333333334E+008,-9.989096783101559E-003,7.099504023790360E-002,-7.299582958221436E-001,-6.759197711944580E-001,-9.989096783101559E-003,7.099504023790360E-002,-7.299582958221436E-001,-6.759197711944580E-001,
7.904000000000000E+008,1.376155414618552E-003,7.017815858125687E-002,-7.302875518798828E-001,-6.574338674545288E-001,1.376155414618552E-003,7.017815858125687E-002,-7.302875518798828E-001,-6.574338674545288E-001,
7.987666666666666E+008,6.943929474800825E-003,6.404996663331986E-002,-7.635668516159058E-001,-6.301314830780029E-001,6.943929474800825E-003,6.404996663331986E-002,-7.635668516159058E-001,-6.301314830780029E-001,
8.071333333333334E+008,1.064886432141066E-002,5.957795679569244E-002,-7.718392014503479E-001,-6.196043491363525E-001,1.064886432141066E-002,5.957795679569244E-002,-7.718392014503479E-001,-6.196043491363525E-001,
8.155000000000000E+008,5.549242720007896E-003,5.387639999389648E-002,-7.952885031700134E-001,-5.999729633331299E-001,5.549242720007896E-003,5.387639999389648E-002,-7.952885031700134E-001,-5.999729633331299E-001,
8.238666666666666E+008,2.338157035410404E-003,4.906743392348290E-002,-7.963301539421082E-001,-5.716213583946228E-001,2.338157035410404E-003,4.906743392348290E-002,-7.963301539421082E-001,-5.716213583946228E-001,
8.322333333333334E+008,-3.724095411598682E-003,4.998932406306267E-002,-8.222448229789734E-001,-5.466609597206116E-001,-3.724095411598682E-003,4.998932406306267E-002,-8.222448229789734E-001,-5.466609597206116E-001,
8.406000000000000E+008,-8.615251630544663E-003,5.395686998963356E-002,-8.255372643470764E-001,-5.398364663124085E-001,-8.615251630544663E-003,5.395686998963356E-002,-8.255372643470764E-001,-5.398364663124085E-001,
8.489666666666668E+008,-1.122954115271568E-002,6.143270060420036E-002,-8.408828377723694E-001,-5.233592987060547E-001,-1.122954115271568E-002,6.143270060420036E-002,-8.408828377723694E-001,-5.233592987060547E-001,
8.573333333333334E+008,-8.096208795905113E-003,6.880366802215576E-002,-8.578056097030640E-001,-4.834603667259216E-001,-8.096208795905113E-003,6.880366802215576E-002,-8.578056097030640E-001,-4.834603667259216E-001,
8.657000000000000E+008,1.674509607255459E-003,7.579936087131500E-002,-8.739905953407288E-001,-4.616557657718658E-001,1.674509607255459E-003,7.579936087131500E-002,-8.739905953407288E-001,-4.616557657718658E-001,
8.740666666666668E+008,1.041548140347004E-002,7.854759693145752E-002,-8.706599473953247E-001,-4.519178271293640E-001,1.041548140347004E-002,7.854759693145752E-002,-8.706599473953247E-001,-4.519178271293640E-001,
8.824333333333334E+008,2.108978480100632E-002,7.738634198904038E-002,-8.890370130538940E-001,-4.364988803863525E-001,2.108978480100632E-002,7.738634198904038E-002,-8.890370130538940E-001,-4.364988803863525E-001,
8.908000000000000E+008,3.147340193390846E-002,7.160552591085434E-002,-8.881263136863709E-001,-4.011721909046173E-001,3.147340193390846E-002,7.160552591085434E-002,-8.881263136863709E-001,-4.011721909046173E-001,
8.991666666666668E+008,3.523590043187141E-002,6.532759964466095E-002,-9.053794741630554E-001,-3.759869039058685E-001,3.523590043187141E-002,6.532759964466095E-002,-9.053794741630554E-001,-3.759869039058685E-001,
9.075333333333334E+008,3.665404021739960E-002,5.847647041082382E-002,-9.346022605895996E-001,-3.559103608131409E-001,3.665404021739960E-002,5.847647041082382E-002,-9.346022605895996E-001,-3.559103608131409E-001,
9.159000000000000E+008,3.461489081382752E-002,5.563220009207726E-002,-9.412300586700440E-001,-3.288383483886719E-001,3.461489081382752E-002,5.563220009207726E-002,-9.412300586700440E-001,-3.288383483886719E-001,
9.242666666666668E+008,2.989973314106464E-002,5.226028338074684E-002,-9.442898035049439E-001,-3.105288445949554E-001,2.989973314106464E-002,5.226028338074684E-002,-9.442898035049439E-001,-3.105288445949554E-001,
9.326333333333334E+008,2.319105714559555E-002,5.277933552861214E-002,-9.660536050796509E-001,-2.901984155178070E-001,2.319105714559555E-002,5.277933552861214E-002,-9.660536050796509E-001,-2.901984155178070E-001,
9.410000000000000E+008,2.010270394384861E-002,5.739311873912811E-002,-9.635818600654602E-001,-2.596481740474701E-001,2.010270394384861E-002,5.739311873912811E-002,-9.635818600654602E-001,-2.596481740474701E-001,
9.493666666666668E+008,2.098918333649635E-002,6.310868263244629E-002,-9.537057280540466E-001,-2.369525879621506E-001,2.098918333649635E-002,6.310868263244629E-002,-9.537057280540466E-001,-2.369525879621506E-001,
9.577333333333334E+008,2.402486279606819E-002,7.144048810005188E-002,-9.700831770896912E-001,-2.155268043279648E-001,2.402486279606819E-002,7.144048810005188E-002,-9.700831770896912E-001,-2.155268043279648E-001,
9.661000000000000E+008,3.415837511420250E-002,7.668337970972061E-002,-9.688927531242371E-001,-1.859825700521469E-001,3.415837511420250E-002,7.668337970972061E-002,-9.688927531242371E-001,-1.859825700521469E-001,
9.744666666666668E+008,4.253539443016052E-002,7.638105750083923E-002,-9.710161685943604E-001,-1.676659435033798E-001,4.253539443016052E-002,7.638105750083923E-002,-9.710161685943604E-001,-1.676659435033798E-001,
9.828333333333334E+008,5.707623809576035E-002,7.266955077648163E-002,-9.780757427215576E-001,-1.439304798841476E-001,5.707623809576035E-002,7.266955077648163E-002,-9.780757427215576E-001,-1.439304798841476E-001,
9.912000000000000E+008,6.554270535707474E-002,6.500978767871857E-002,-9.765328764915466E-001,-1.203613802790642E-001,6.554270535707474E-002,6.500978767871857E-002,-9.765328764915466E-001,-1.203613802790642E-001,
9.995666666666668E+008,7.240141928195953E-002,5.557268485426903E-002,-9.939857125282288E-001,-7.594225555658341E-002,7.240141928195953E-002,5.557268485426903E-002,-9.939857125282288E-001,-7.594225555658341E-002,
1.007933333333333E+009,7.280638068914414E-002,4.570131748914719E-002,-9.897117614746094E-001,-6.400663405656815E-002,7.280638068914414E-002,4.570131748914719E-002,-9.897117614746094E-001,-6.400663405656815E-002,
1.016300000000000E+009,6.757418066263199E-002,3.986251726746559E-002,-9.945466518402100E-001,-4.084357246756554E-002,6.757418066263199E-002,3.986251726746559E-002,-9.945466518402100E-001,-4.084357246756554E-002,
1.024666666666667E+009,6.046864017844200E-002,3.308830782771111E-002,-9.947522878646851E-001,-7.593787275254726E-003,6.046864017844200E-002,3.308830782771111E-002,-9.947522878646851E-001,-7.593787275254726E-003,
1.033033333333333E+009,5.428119748830795E-002,3.511796519160271E-002,-9.942551255226135E-001,8.339378051459789E-003,5.428119748830795E-002,3.511796519160271E-002,-9.942551255226135E-001,8.339378051459789E-003,
1.041400000000000E+009,4.867040365934372E-002,4.080692678689957E-002,-9.826220870018005E-001,5.226370692253113E-002,4.867040365934372E-002,4.080692678689957E-002,-9.826220870018005E-001,5.226370692253113E-002,
1.049766666666667E+009,4.869710281491280E-002,4.801699891686440E-002,-9.944560527801514E-001,6.778711080551148E-002,4.869710281491280E-002,4.801699891686440E-002,-9.944560527801514E-001,6.778711080551148E-002,
1.058133333333333E+009,5.520952120423317E-002,5.335026606917381E-002,-9.846506714820862E-001,8.769541978836060E-002,5.520952120423317E-002,5.335026606917381E-002,-9.846506714820862E-001,8.769541978836060E-002,
1.066500000000000E+009,6.704216450452805E-002,5.609126761555672E-002,-9.927645921707153E-001,1.262395232915878E-001,6.704216450452805E-002,5.609126761555672E-002,-9.927645921707153E-001,1.262395232915878E-001,
1.074866666666667E+009,7.867527753114700E-002,5.282985419034958E-002,-9.773640036582947E-001,1.517890542745590E-001,7.867527753114700E-002,5.282985419034958E-002,-9.773640036582947E-001,1.517890542745590E-001,
1.083233333333334E+009,8.968763798475266E-002,4.071433097124100E-002,-9.716492891311646E-001,1.658952832221985E-001,8.968763798475266E-002,4.071433097124100E-002,-9.716492891311646E-001,1.658952832221985E-001,
1.091600000000000E+009,9.640287607908249E-002,2.962983772158623E-002,-9.632808566093445E-001,1.880828887224197E-001,9.640287607908249E-002,2.962983772158623E-002,-9.632808566093445E-001,1.880828887224197E-001,
1.099966666666667E+009,9.826184809207916E-002,1.420134957879782E-002,-9.634839892387390E-001,2.238022536039352E-001,9.826184809207916E-002,1.420134957879782E-002,-9.634839892387390E-001,2.238022536039352E-001,
1.108333333333334E+009,8.975224196910858E-002,3.142472356557846E-003,-9.435515403747559E-001,2.271575778722763E-001,8.975224196910858E-002,3.142472356557846E-003,-9.435515403747559E-001,2.271575778722763E-001,
1.116700000000000E+009,7.603384554386139E-002,1.875556656159461E-003,-9.425601959228516E-001,2.701426446437836E-001,7.603384554386139E-002,1.875556656159461E-003,-9.425601959228516E-001,2.701426446437836E-001,
1.125066666666667E+009,6.401798874139786E-002,2.061901614069939E-003,-9.479758143424988E-001,2.844575047492981E-001,6.401798874139786E-002,2.061901614069939E-003,-9.479758143424988E-001,2.844575047492981E-001,
1.133433333333334E+009,5.547854676842690E-002,1.328763645142317E-002,-9.516364336013794E-001,3.104932904243469E-001,5.547854676842690E-002,1.328763645142317E-002,-9.516364336013794E-001,3.104932904243469E-001,
1.141800000000000E+009,5.516707897186279E-002,2.365325950086117E-002,-9.233998656272888E-001,3.323247432708740E-001,5.516707897186279E-002,2.365325950086117E-002,-9.233998656272888E-001,3.323247432708740E-001,
1.150166666666667E+009,6.232639774680138E-002,3.674636408686638E-002,-9.049611091613770E-001,3.622199296951294E-001,6.232639774680138E-002,3.674636408686638E-002,-9.049611091613770E-001,3.622199296951294E-001,
1.158533333333334E+009,7.729042321443558E-002,4.290186613798142E-002,-9.040356278419495E-001,3.849606812000275E-001,7.729042321443558E-002,4.290186613798142E-002,-9.040356278419495E-001,3.849606812000275E-001,
1.166900000000000E+009,9.615509957075119E-002,3.925316780805588E-002,-8.948485851287842E-001,4.197726845741272E-001,9.615509957075119E-002,3.925316780805588E-002,-8.948485851287842E-001,4.197726845741272E-001,
1.175266666666667E+009,1.109858453273773E-001,2.487790212035179E-002,-8.814859986305237E-001,4.225280284881592E-001,1.109858453273773E-001,2.487790212035179E-002,-8.814859986305237E-001,4.225280284881592E-001,
1.183633333333334E+009,1.222824081778526E-001,6.816555280238390E-003,-8.741008043289185E-001,4.611614048480988E-001,1.222824081778526E-001,6.816555280238390E-003,-8.741008043289185E-001,4.611614048480988E-001,
1.192000000000000E+009,1.225383877754211E-001,-1.570299267768860E-002,-8.640863895416260E-001,4.692770242691040E-001,1.225383877754211E-001,-1.570299267768860E-002,-8.640863895416260E-001,4.692770242691040E-001,
1.200366666666667E+009,1.112985238432884E-001,-3.241166844964027E-002,-8.532209992408752E-001,4.955362379550934E-001,1.112985238432884E-001,-3.241166844964027E-002,-8.532209992408752E-001,4.955362379550934E-001,
1.208733333333334E+009,9.586232900619507E-002,-4.235792532563210E-002,-8.509647846221924E-001,5.152391791343689E-001,9.586232900619507E-002,-4.235792532563210E-002,-8.509647846221924E-001,5.152391791343689E-001,
1.217100000000000E+009,7.764856517314911E-002,-4.054685682058334E-002,-8.291938304901123E-001,5.331856012344360E-001,7.764856517314911E-002,-4.054685682058334E-002,-8.291938304901123E-001,5.331856012344360E-001,
1.225466666666667E+009,6.666687875986099E-002,-3.302104771137238E-002,-8.088495135307312E-001,5.598368644714356E-001,6.666687875986099E-002,-3.302104771137238E-002,-8.088495135307312E-001,5.598368644714356E-001,
1.233833333333334E+009,5.995666235685349E-002,-1.774877309799194E-002,-7.918334603309631E-001,5.823390483856201E-001,5.995666235685349E-002,-1.774877309799194E-002,-7.918334603309631E-001,5.823390483856201E-001,
1.242200000000000E+009,6.375831365585327E-002,-2.373914700001478E-003,-7.760584950447083E-001,5.944387316703796E-001,6.375831365585327E-002,-2.373914700001478E-003,-7.760584950447083E-001,5.944387316703796E-001,
1.250566666666667E+009,7.882928848266602E-002,4.611310083419085E-003,-7.482886910438538E-001,6.238715052604675E-001,7.882928848266602E-002,4.611310083419085E-003,-7.482886910438538E-001,6.238715052604675E-001,
1.258933333333334E+009,9.613576531410217E-002,2.862580819055438E-003,-7.562621235847473E-001,6.408309340476990E-001,9.613576531410217E-002,2.862580819055438E-003,-7.562621235847473E-001,6.408309340476990E-001,
1.267300000000000E+009,1.122308894991875E-001,-1.212446298450232E-002,-7.352706789970398E-001,6.546882390975952E-001,1.122308894991875E-001,-1.212446298450232E-002,-7.352706789970398E-001,6.546882390975952E-001,
1.275666666666667E+009,1.218706145882607E-001,-3.270099312067032E-002,-7.010940313339233E-001,6.801163554191589E-001,1.218706145882607E-001,-3.270099312067032E-002,-7.010940313339233E-001,6.801163554191589E-001,
1.284033333333334E+009,1.192201524972916E-001,-5.680067092180252E-002,-6.918031573295593E-001,6.987273693084717E-001,1.192201524972916E-001,-5.680067092180252E-002,-6.918031573295593E-001,6.987273693084717E-001,
1.292400000000000E+009,1.067995652556419E-001,-7.594993710517883E-002,-6.807680726051331E-001,7.077654600143433E-001,1.067995652556419E-001,-7.594993710517883E-002,-6.807680726051331E-001,7.077654600143433E-001,
1.300766666666667E+009,8.752144128084183E-002,-8.578331023454666E-002,-6.616920828819275E-001,7.251050472259522E-001,8.752144128084183E-002,-8.578331023454666E-002,-6.616920828819275E-001,7.251050472259522E-001,
1.309133333333334E+009,6.487298756837845E-002,-8.530516177415848E-002,-6.512743234634399E-001,7.408952116966248E-001,6.487298756837845E-002,-8.530516177415848E-002,-6.512743234634399E-001,7.408952116966248E-001,
1.317500000000000E+009,5.178497359156609E-002,-7.497030496597290E-002,-6.229762434959412E-001,7.579563856124878E-001,5.178497359156609E-002,-7.497030496597290E-002,-6.229762434959412E-001,7.579563856124878E-001,
1.325866666666667E+009,4.495022445917130E-002,-5.657616630196571E-002,-6.132301092147827E-001,7.742286324501038E-001,4.495022445917130E-002,-5.657616630196571E-002,-6.132301092147827E-001,7.742286324501038E-001,
1.334233333333334E+009,5.096613243222237E-002,-4.140676185488701E-002,-5.804774165153503E-001,7.958960533142090E-001,5.096613243222237E-002,-4.140676185488701E-002,-5.804774165153503E-001,7.958960533142090E-001,
1.342600000000000E+009,6.372889131307602E-002,-3.464655205607414E-002,-5.604069232940674E-001,8.119410276412964E-001,6.372889131307602E-002,-3.464655205607414E-002,-5.604069232940674E-001,8.119410276412964E-001,
1.350966666666667E+009,7.960173487663269E-002,-3.891928493976593E-002,-5.265946984291077E-001,8.387144207954407E-001,7.960173487663269E-002,-3.891928493976593E-002,-5.265946984291077E-001,8.387144207954407E-001,
1.359333333333334E+009,9.457938373088837E-002,-5.183749645948410E-002,-5.181199312210083E-001,8.360061645507813E-001,9.457938373088837E-002,-5.183749645948410E-002,-5.181199312210083E-001,8.360061645507813E-001,
1.367700000000000E+009,9.509743750095367E-002,-7.520136237144470E-002,-5.003288984298706E-001,8.440133333206177E-001,9.509743750095367E-002,-7.520136237144470E-002,-5.003288984298706E-001,8.440133333206177E-001,
1.376066666666667E+009,8.739071339368820E-002,-9.561082720756531E-002,-4.845714867115021E-001,8.588233590126038E-001,8.739071339368820E-002,-9.561082720756531E-002,-4.845714867115021E-001,8.588233590126038E-001,
1.384433333333334E+009,6.901616603136063E-002,-1.142442077398300E-001,-4.593627452850342E-001,8.820044398307800E-001,6.901616603136063E-002,-1.142442077398300E-001,-4.593627452850342E-001,8.820044398307800E-001,
1.392800000000000E+009,4.578987881541252E-002,-1.189188063144684E-001,-4.486007690429688E-001,8.779413104057312E-001,4.578987881541252E-002,-1.189188063144684E-001,-4.486007690429688E-001,8.779413104057312E-001,
1.401166666666667E+009,2.443886362016201E-002,-1.113475412130356E-001,-4.229437112808228E-001,8.941670060157776E-001,2.443886362016201E-002,-1.113475412130356E-001,-4.229437112808228E-001,8.941670060157776E-001,
1.409533333333334E+009,9.594492614269257E-003,-9.547249972820282E-002,-3.923719823360443E-001,9.084784984588623E-001,9.594492614269257E-003,-9.547249972820282E-002,-3.923719823360443E-001,9.084784984588623E-001,
1.417900000000000E+009,6.037557963281870E-003,-7.243668287992477E-002,-3.789429962635040E-001,9.020618796348572E-001,6.037557963281870E-003,-7.243668287992477E-002,-3.789429962635040E-001,9.020618796348572E-001,
1.426266666666667E+009,1.645323075354099E-002,-5.709731951355934E-002,-3.445449471473694E-001,9.281391501426697E-001,1.645323075354099E-002,-5.709731951355934E-002,-3.445449471473694E-001,9.281391501426697E-001,
1.434633333333334E+009,3.341123461723328E-002,-4.779550433158875E-002,-3.111470341682434E-001,9.397478699684143E-001,3.341123461723328E-002,-4.779550433158875E-002,-3.111470341682434E-001,9.397478699684143E-001,
1.443000000000000E+009,5.135599151253700E-002,-5.105293542146683E-002,-2.921198010444641E-001,9.421420693397522E-001,5.135599151253700E-002,-5.105293542146683E-002,-2.921198010444641E-001,9.421420693397522E-001,
1.451366666666667E+009,6.503248959779739E-002,-6.423869729042053E-002,-2.618753612041473E-001,9.413791298866272E-001,6.503248959779739E-002,-6.423869729042053E-002,-2.618753612041473E-001,9.413791298866272E-001,
1.459733333333334E+009,6.971039623022080E-002,-8.898798376321793E-002,-2.446641921997070E-001,9.478008151054382E-001,6.971039623022080E-002,-8.898798376321793E-002,-2.446641921997070E-001,9.478008151054382E-001,
