% Version 1.00
%
%freq[Hz],re:Trc1_S11,im:Trc1_S11,re:Trc2_S21,im:Trc2_S21,re:Trc3_S11,im:Trc3_S11,re:Trc4_S21,im:Trc4_S21,
6.900000000000000E+008,-1.701415330171585E-002,1.592198014259338E-002,-4.613073170185089E-001,-8.714680671691895E-001,-1.701415330171585E-002,1.592198014259338E-002,-4.613073170185089E-001,-8.714680671691895E-001,
6.983666666666666E+008,-7.199454586952925E-003,1.647411845624447E-002,-4.921233057975769E-001,-8.622982501983643E-001,-7.199454586952925E-003,1.647411845624447E-002,-4.921233057975769E-001,-8.622982501983643E-001,
7.067333333333334E+008,-8.341736393049359E-004,1.140912063419819E-002,-5.371783375740051E-001,-8.027317523956299E-001,-8.341736393049359E-004,1.140912063419819E-002,-5.371783375740051E-001,-8.027317523956299E-001,
7.151000000000000E+008,-4.717466363217682E-004,3.344641765579581E-003,-5.522655844688416E-001,-8.161604404449463E-001,-4.717466363217682E-004,3.344641765579581E-003,-5.522655844688416E-001,-8.161604404449463E-001,
7.234666666666666E+008,-3.887209342792630E-003,-2.439288655295968E-003,-5.687970519065857E-001,-8.047502636909485E-001,-3.887209342792630E-003,-2.439288655295968E-003,-5.687970519065857E-001,-8.047502636909485E-001,
7.318333333333334E+008,-1.118768379092217E-002,-5.553805269300938E-003,-5.837216973304749E-001,-8.026528358459473E-001,-1.118768379092217E-002,-5.553805269300938E-003,-5.837216973304749E-001,-8.026528358459473E-001,
7.402000000000000E+008,-1.834498904645443E-002,-5.804579239338636E-003,-6.290026903152466E-001,-7.923300862312317E-001,-1.834498904645443E-002,-5.804579239338636E-003,-6.290026903152466E-001,-7.923300862312317E-001,
7.485666666666666E+008,-2.633491717278957E-002,-1.157234539277852E-003,-6.245757341384888E-001,-7.863937020301819E-001,-2.633491717278957E-002,-1.157234539277852E-003,-6.245757341384888E-001,-7.863937020301819E-001,
7.569333333333334E+008,-2.868984825909138E-002,6.181610748171806E-003,-6.336616873741150E-001,-7.707278132438660E-001,-2.868984825909138E-002,6.181610748171806E-003,-6.336616873741150E-001,-7.707278132438660E-001,
7.653000000000000E+008,-2.513006515800953E-002,1.284821517765522E-002,-6.555325388908386E-001,-7.495939135551453E-001,-2.513006515800953E-002,1.284821517765522E-002,-6.555325388908386E-001,-7.495939135551453E-001,
7.736666666666666E+008,-1.910927891731262E-002,1.902943290770054E-002,-6.860519647598267E-001,-7.219166755676270E-001,-1.910927891731262E-002,1.902943290770054E-002,-6.860519647598267E-001,-7.219166755676270E-001,
7.820333333333334E+008,-9.984033182263374E-003,2.171081490814686E-002,-6.980088949203491E-001,-7.118352055549622E-001,-9.984033182263374E-003,2.171081490814686E-002,-6.980088949203491E-001,-7.118352055549622E-001,
7.904000000000000E+008,-9.120577014982700E-004,2.098725177347660E-002,-7.010341882705689E-001,-6.925937533378601E-001,-9.120577014982700E-004,2.098725177347660E-002,-7.010341882705689E-001,-6.925937533378601E-001,
7.987666666666666E+008,3.638140391558409E-003,1.523672416806221E-002,-7.376111745834351E-001,-6.711107492446899E-001,3.638140391558409E-003,1.523672416806221E-002,-7.376111745834351E-001,-6.711107492446899E-001,
8.071333333333334E+008,6.571164820343256E-003,1.051458436995745E-002,-7.432999610900879E-001,-6.610020995140076E-001,6.571164820343256E-003,1.051458436995745E-002,-7.432999610900879E-001,-6.610020995140076E-001,
8.155000000000000E+008,1.087808283045888E-003,3.704396542161703E-003,-7.672921419143677E-001,-6.401735544204712E-001,1.087808283045888E-003,3.704396542161703E-003,-7.672921419143677E-001,-6.401735544204712E-001,
8.238666666666666E+008,-3.720101667568088E-003,-9.000847348943353E-004,-7.672210335731506E-001,-6.121554970741272E-001,-3.720101667568088E-003,-9.000847348943353E-004,-7.672210335731506E-001,-6.121554970741272E-001,
8.322333333333334E+008,-1.156304031610489E-002,-8.315761224366725E-004,-7.891198396682739E-001,-5.941089987754822E-001,-1.156304031610489E-002,-8.315761224366725E-004,-7.891198396682739E-001,-5.941089987754822E-001,
8.406000000000000E+008,-1.878327690064907E-002,2.727586543187499E-003,-8.010209798812866E-001,-5.819382667541504E-001,-1.878327690064907E-002,2.727586543187499E-003,-8.010209798812866E-001,-5.819382667541504E-001,
8.489666666666668E+008,-2.311581559479237E-002,9.028999134898186E-003,-8.128365278244019E-001,-5.648691058158875E-001,-2.311581559479237E-002,9.028999134898186E-003,-8.128365278244019E-001,-5.648691058158875E-001,
8.573333333333334E+008,-2.249487303197384E-002,1.674246788024902E-002,-8.325496912002564E-001,-5.251610875129700E-001,-2.249487303197384E-002,1.674246788024902E-002,-8.325496912002564E-001,-5.251610875129700E-001,
8.657000000000000E+008,-1.598883979022503E-002,2.352343313395977E-002,-8.515864014625549E-001,-5.100445151329041E-001,-1.598883979022503E-002,2.352343313395977E-002,-8.515864014625549E-001,-5.100445151329041E-001,
8.740666666666668E+008,-9.250713512301445E-003,2.658506669104099E-002,-8.494341373443604E-001,-4.947891533374786E-001,-9.250713512301445E-003,2.658506669104099E-002,-8.494341373443604E-001,-4.947891533374786E-001,
8.824333333333334E+008,-1.599559036549181E-004,2.646098658442497E-002,-8.683845996856690E-001,-4.840842485427856E-001,-1.599559036549181E-004,2.646098658442497E-002,-8.683845996856690E-001,-4.840842485427856E-001,
8.908000000000000E+008,8.335318416357040E-003,2.239925414323807E-002,-8.692377209663391E-001,-4.500096738338471E-001,8.335318416357040E-003,2.239925414323807E-002,-8.692377209663391E-001,-4.500096738338471E-001,
8.991666666666668E+008,1.224026735872030E-002,1.616678759455681E-002,-8.860804438591003E-001,-4.217625260353088E-001,1.224026735872030E-002,1.616678759455681E-002,-8.860804438591003E-001,-4.217625260353088E-001,
9.075333333333334E+008,1.106648892164230E-002,9.256620891392231E-003,-9.112228751182556E-001,-4.099813699722290E-001,1.106648892164230E-002,9.256620891392231E-003,-9.112228751182556E-001,-4.099813699722290E-001,
9.159000000000000E+008,8.049953728914261E-003,6.715234834700823E-003,-9.213670492172241E-001,-3.789789378643036E-001,8.049953728914261E-003,6.715234834700823E-003,-9.213670492172241E-001,-3.789789378643036E-001,
9.242666666666668E+008,2.126252045854926E-003,3.091120393946767E-003,-9.302876591682434E-001,-3.676279187202454E-001,2.126252045854926E-003,3.091120393946767E-003,-9.302876591682434E-001,-3.676279187202454E-001,
9.326333333333334E+008,-6.403889507055283E-003,3.788842353969812E-003,-9.506601095199585E-001,-3.476936221122742E-001,-6.403889507055283E-003,3.788842353969812E-003,-9.506601095199585E-001,-3.476936221122742E-001,
9.410000000000000E+008,-1.130865514278412E-002,8.052349090576172E-003,-9.468498229980469E-001,-3.121339082717896E-001,-1.130865514278412E-002,8.052349090576172E-003,-9.468498229980469E-001,-3.121339082717896E-001,
9.493666666666668E+008,-1.402269583195448E-002,1.474854350090027E-002,-9.454215764999390E-001,-2.912591695785523E-001,-1.402269583195448E-002,1.474854350090027E-002,-9.454215764999390E-001,-2.912591695785523E-001,
9.577333333333334E+008,-1.332329679280520E-002,2.308601699769497E-002,-9.611886739730835E-001,-2.695994973182678E-001,-1.332329679280520E-002,2.308601699769497E-002,-9.611886739730835E-001,-2.695994973182678E-001,
9.661000000000000E+008,-6.764078978449106E-003,3.032455779612064E-002,-9.629076123237610E-001,-2.461646795272827E-001,-6.764078978449106E-003,3.032455779612064E-002,-9.629076123237610E-001,-2.461646795272827E-001,
9.744666666666668E+008,1.260711695067585E-003,3.232458233833313E-002,-9.687585830688477E-001,-2.237636297941208E-001,1.260711695067585E-003,3.232458233833313E-002,-9.687585830688477E-001,-2.237636297941208E-001,
9.828333333333334E+008,1.341757830232382E-002,2.995187975466251E-002,-9.716375470161438E-001,-2.013485729694367E-001,1.341757830232382E-002,2.995187975466251E-002,-9.716375470161438E-001,-2.013485729694367E-001,
9.912000000000000E+008,2.097759209573269E-002,2.430631034076214E-002,-9.711205959320068E-001,-1.754164993762970E-001,2.097759209573269E-002,2.430631034076214E-002,-9.711205959320068E-001,-1.754164993762970E-001,
9.995666666666668E+008,2.703686431050301E-002,1.709143817424774E-002,-9.898608326911926E-001,-1.373406499624252E-001,2.703686431050301E-002,1.709143817424774E-002,-9.898608326911926E-001,-1.373406499624252E-001,
1.007933333333333E+009,2.700257487595081E-002,7.599699776619673E-003,-9.893007278442383E-001,-1.252327114343643E-001,2.700257487595081E-002,7.599699776619673E-003,-9.893007278442383E-001,-1.252327114343643E-001,
1.016300000000000E+009,2.103068865835667E-002,1.928682671859860E-003,-9.930711984634399E-001,-9.953738749027252E-002,2.103068865835667E-002,1.928682671859860E-003,-9.930711984634399E-001,-9.953738749027252E-002,
1.024666666666667E+009,1.330945175141096E-002,-4.089351743459702E-003,-9.972674250602722E-001,-6.713973730802536E-002,1.330945175141096E-002,-4.089351743459702E-003,-9.972674250602722E-001,-6.713973730802536E-002,
1.033033333333333E+009,5.240304395556450E-003,-1.207675901241601E-003,-9.931115508079529E-001,-4.975858330726624E-002,5.240304395556450E-003,-1.207675901241601E-003,-9.931115508079529E-001,-4.975858330726624E-002,
1.041400000000000E+009,-2.197734545916319E-003,4.547263029962778E-003,-9.830331206321716E-001,-1.184371020644903E-002,-2.197734545916319E-003,4.547263029962778E-003,-9.830331206321716E-001,-1.184371020644903E-002,
1.049766666666667E+009,-4.461212083697319E-003,1.314932201057673E-002,-9.975983500480652E-001,5.043818615376949E-003,-4.461212083697319E-003,1.314932201057673E-002,-9.975983500480652E-001,5.043818615376949E-003,
1.058133333333333E+009,-9.898790158331394E-004,2.088164351880550E-002,-9.942795038223267E-001,2.508103102445602E-002,-9.898790158331394E-004,2.088164351880550E-002,-9.942795038223267E-001,2.508103102445602E-002,
1.066500000000000E+009,8.197301067411900E-003,2.611369267106056E-002,-1.001130342483521E+000,6.419121474027634E-002,8.197301067411900E-003,2.611369267106056E-002,-1.001130342483521E+000,6.419121474027634E-002,
1.074866666666667E+009,1.840195991098881E-002,2.580543421208859E-002,-9.823904633522034E-001,8.195983618497849E-002,1.840195991098881E-002,2.580543421208859E-002,-9.823904633522034E-001,8.195983618497849E-002,
1.083233333333334E+009,2.939854934811592E-002,1.592725142836571E-002,-9.859706163406372E-001,1.064475327730179E-001,2.939854934811592E-002,1.592725142836571E-002,-9.859706163406372E-001,1.064475327730179E-001,
1.091600000000000E+009,3.551105782389641E-002,7.113222032785416E-003,-9.775148630142212E-001,1.268310546875000E-001,3.551105782389641E-002,7.113222032785416E-003,-9.775148630142212E-001,1.268310546875000E-001,
1.099966666666667E+009,3.719095885753632E-002,-6.644857581704855E-003,-9.823889732360840E-001,1.631688475608826E-001,3.719095885753632E-002,-6.644857581704855E-003,-9.823889732360840E-001,1.631688475608826E-001,
1.108333333333334E+009,2.867269888520241E-002,-1.751609519124031E-002,-9.576572775840759E-001,1.678782999515533E-001,2.867269888520241E-002,-1.751609519124031E-002,-9.576572775840759E-001,1.678782999515533E-001,
1.116700000000000E+009,1.615809462964535E-002,-1.790058799088001E-002,-9.615834355354309E-001,2.153061330318451E-001,1.615809462964535E-002,-1.790058799088001E-002,-9.615834355354309E-001,2.153061330318451E-001,
1.125066666666667E+009,2.086323685944080E-003,-1.821535453200340E-002,-9.690435528755188E-001,2.230586558580399E-001,2.086323685944080E-003,-1.821535453200340E-002,-9.690435528755188E-001,2.230586558580399E-001,
1.133433333333334E+009,-8.732994087040424E-003,-5.713662132620812E-003,-9.678904414176941E-001,2.458868771791458E-001,-8.732994087040424E-003,-5.713662132620812E-003,-9.678904414176941E-001,2.458868771791458E-001,
1.141800000000000E+009,-1.155478227883577E-002,7.041494827717543E-003,-9.404679536819458E-001,2.685637474060059E-001,-1.155478227883577E-002,7.041494827717543E-003,-9.404679536819458E-001,2.685637474060059E-001,
1.150166666666667E+009,-7.896881550550461E-003,2.249300852417946E-002,-9.334931373596191E-001,2.970031499862671E-001,-7.896881550550461E-003,2.249300852417946E-002,-9.334931373596191E-001,2.970031499862671E-001,
1.158533333333334E+009,4.897283390164375E-003,3.226078301668167E-002,-9.356748461723328E-001,3.241350948810577E-001,4.897283390164375E-003,3.226078301668167E-002,-9.356748461723328E-001,3.241350948810577E-001,
1.166900000000000E+009,2.319652214646339E-002,3.345136344432831E-002,-9.275158643722534E-001,3.579620122909546E-001,2.319652214646339E-002,3.345136344432831E-002,-9.275158643722534E-001,3.579620122909546E-001,
1.175266666666667E+009,3.891876339912415E-002,2.358599379658699E-002,-9.173220396041870E-001,3.651797771453857E-001,3.891876339912415E-002,2.358599379658699E-002,-9.173220396041870E-001,3.651797771453857E-001,
1.183633333333334E+009,5.133898183703423E-002,9.198687970638275E-003,-9.094746708869934E-001,4.026161134243012E-001,5.133898183703423E-002,9.198687970638275E-003,-9.094746708869934E-001,4.026161134243012E-001,
1.192000000000000E+009,5.358381941914558E-002,-1.154715660959482E-002,-9.005013108253479E-001,4.099188148975372E-001,5.358381941914558E-002,-1.154715660959482E-002,-9.005013108253479E-001,4.099188148975372E-001,
1.200366666666667E+009,4.421923309564591E-002,-2.731459215283394E-002,-8.903686404228210E-001,4.376730918884277E-001,4.421923309564591E-002,-2.731459215283394E-002,-8.903686404228210E-001,4.376730918884277E-001,
1.208733333333334E+009,2.898580208420754E-002,-3.819101303815842E-002,-8.897488117218018E-001,4.535910189151764E-001,2.898580208420754E-002,-3.819101303815842E-002,-8.897488117218018E-001,4.535910189151764E-001,
1.217100000000000E+009,1.056347973644733E-002,-3.556363284587860E-002,-8.718894720077515E-001,4.781325757503510E-001,1.056347973644733E-002,-3.556363284587860E-002,-8.718894720077515E-001,4.781325757503510E-001,
1.225466666666667E+009,-2.534309867769480E-003,-2.753347903490067E-002,-8.509401679039002E-001,5.016730427742004E-001,-2.534309867769480E-003,-2.753347903490067E-002,-8.509401679039002E-001,5.016730427742004E-001,
1.233833333333334E+009,-1.119999308139086E-002,-1.154254749417305E-002,-8.353987336158752E-001,5.229710340499878E-001,-1.119999308139086E-002,-1.154254749417305E-002,-8.353987336158752E-001,5.229710340499878E-001,
1.242200000000000E+009,-9.916792623698711E-003,7.341959979385138E-003,-8.209823369979858E-001,5.370423793792725E-001,-9.916792623698711E-003,7.341959979385138E-003,-8.209823369979858E-001,5.370423793792725E-001,
1.250566666666667E+009,3.308750921860337E-003,1.880768314003944E-002,-7.958803772926331E-001,5.613754391670227E-001,3.308750921860337E-003,1.880768314003944E-002,-7.958803772926331E-001,5.613754391670227E-001,
1.258933333333334E+009,2.114044502377510E-002,2.179260179400444E-002,-8.125333786010742E-001,5.828483700752258E-001,2.114044502377510E-002,2.179260179400444E-002,-8.125333786010742E-001,5.828483700752258E-001,
1.267300000000000E+009,3.922106325626373E-002,1.326712779700756E-002,-7.900914549827576E-001,5.983802080154419E-001,3.922106325626373E-002,1.326712779700756E-002,-7.900914549827576E-001,5.983802080154419E-001,
1.275666666666667E+009,5.073937028646469E-002,-4.408160690218210E-003,-7.599149942398071E-001,6.244493126869202E-001,5.073937028646469E-002,-4.408160690218210E-003,-7.599149942398071E-001,6.244493126869202E-001,
1.284033333333334E+009,5.144889652729034E-002,-2.637756057083607E-002,-7.516452074050903E-001,6.435561180114746E-001,5.144889652729034E-002,-2.637756057083607E-002,-7.516452074050903E-001,6.435561180114746E-001,
1.292400000000000E+009,4.139884188771248E-002,-4.533890262246132E-002,-7.397643327713013E-001,6.600304245948792E-001,4.139884188771248E-002,-4.533890262246132E-002,-7.397643327713013E-001,6.600304245948792E-001,
1.300766666666667E+009,2.387469448149204E-002,-5.573635175824165E-002,-7.197894454002380E-001,6.793946027755737E-001,2.387469448149204E-002,-5.573635175824165E-002,-7.197894454002380E-001,6.793946027755737E-001,
1.309133333333334E+009,2.058699494227767E-003,-5.541838333010674E-002,-7.061447501182556E-001,6.942883729934692E-001,2.058699494227767E-003,-5.541838333010674E-002,-7.061447501182556E-001,6.942883729934692E-001,
1.317500000000000E+009,-1.325919479131699E-002,-4.449364542961121E-002,-6.845699548721314E-001,7.073016166687012E-001,-1.325919479131699E-002,-4.449364542961121E-002,-6.845699548721314E-001,7.073016166687012E-001,
1.325866666666667E+009,-2.099383436143398E-002,-2.519599348306656E-002,-6.681976914405823E-001,7.253513932228088E-001,-2.099383436143398E-002,-2.519599348306656E-002,-6.681976914405823E-001,7.253513932228088E-001,
1.334233333333334E+009,-1.713344082236290E-002,-5.930124316364527E-003,-6.439990401268005E-001,7.490248680114746E-001,-1.713344082236290E-002,-5.930124316364527E-003,-6.439990401268005E-001,7.490248680114746E-001,
1.342600000000000E+009,-5.355895496904850E-003,4.723843652755022E-003,-6.278452277183533E-001,7.704076170921326E-001,-5.355895496904850E-003,4.723843652755022E-003,-6.278452277183533E-001,7.704076170921326E-001,
1.350966666666667E+009,1.275063958019018E-002,6.483046337962151E-003,-6.013785600662231E-001,7.934263348579407E-001,1.275063958019018E-002,6.483046337962151E-003,-6.013785600662231E-001,7.934263348579407E-001,
1.359333333333334E+009,2.920375950634480E-002,-2.915398217737675E-003,-5.868097543716431E-001,7.980835437774658E-001,2.920375950634480E-002,-2.915398217737675E-003,-5.868097543716431E-001,7.980835437774658E-001,
1.367700000000000E+009,3.398384898900986E-002,-2.286428585648537E-002,-5.728791952133179E-001,8.048343658447266E-001,3.398384898900986E-002,-2.286428585648537E-002,-5.728791952133179E-001,8.048343658447266E-001,
1.376066666666667E+009,3.135884180665016E-002,-4.250784218311310E-002,-5.563643574714661E-001,8.250263929367065E-001,3.135884180665016E-002,-4.250784218311310E-002,-5.563643574714661E-001,8.250263929367065E-001,
1.384433333333334E+009,1.545467972755432E-002,-6.091514974832535E-002,-5.319397449493408E-001,8.488888144493103E-001,1.545467972755432E-002,-6.091514974832535E-002,-5.319397449493408E-001,8.488888144493103E-001,
1.392800000000000E+009,-5.755944643169642E-003,-6.669386476278305E-002,-5.174685716629028E-001,8.460999727249146E-001,-5.755944643169642E-003,-6.669386476278305E-002,-5.174685716629028E-001,8.460999727249146E-001,
1.401166666666667E+009,-2.772783674299717E-002,-5.980250239372253E-002,-4.967959225177765E-001,8.639987707138062E-001,-2.772783674299717E-002,-5.980250239372253E-002,-4.967959225177765E-001,8.639987707138062E-001,
1.409533333333334E+009,-4.334869608283043E-002,-4.464896768331528E-002,-4.664729237556458E-001,8.745121359825134E-001,-4.334869608283043E-002,-4.464896768331528E-002,-4.664729237556458E-001,8.745121359825134E-001,
1.417900000000000E+009,-4.821982979774475E-002,-1.990593969821930E-002,-4.512580931186676E-001,8.694930076599121E-001,-4.821982979774475E-002,-1.990593969821930E-002,-4.512580931186676E-001,8.694930076599121E-001,
1.426266666666667E+009,-4.000973328948021E-002,-8.818571950541809E-005,-4.254971742630005E-001,8.986929059028626E-001,-4.000973328948021E-002,-8.818571950541809E-005,-4.254971742630005E-001,8.986929059028626E-001,
1.434633333333334E+009,-2.252359874546528E-002,1.353536359965801E-002,-3.917261958122253E-001,9.083647131919861E-001,-2.252359874546528E-002,1.353536359965801E-002,-3.917261958122253E-001,9.083647131919861E-001,
1.443000000000000E+009,-2.453814493492246E-003,1.569993235170841E-002,-3.791978061199188E-001,9.131281375885010E-001,-2.453814493492246E-003,1.569993235170841E-002,-3.791978061199188E-001,9.131281375885010E-001,
1.451366666666667E+009,1.484939642250538E-002,5.943595897406340E-003,-3.476655483245850E-001,9.244801998138428E-001,1.484939642250538E-002,5.943595897406340E-003,-3.476655483245850E-001,9.244801998138428E-001,
1.459733333333334E+009,2.468109130859375E-002,-1.447193138301373E-002,-3.296783566474915E-001,9.248863458633423E-001,2.468109130859375E-002,-1.447193138301373E-002,-3.296783566474915E-001,9.248863458633423E-001,
