% Version 1.00
%
%freq[Hz],re:Trc1_S11,im:Trc1_S11,re:Trc2_S21,im:Trc2_S21,re:Trc3_S11,im:Trc3_S11,re:Trc4_S21,im:Trc4_S21,
6.900000000000000E+008,-1.732514798641205E-002,6.077577546238899E-002,-5.016574859619141E-001,-8.501546978950501E-001,-1.732514798641205E-002,6.077577546238899E-002,-5.016574859619141E-001,-8.501546978950501E-001,
6.983666666666666E+008,-6.688040681183338E-003,6.138867884874344E-002,-5.227066278457642E-001,-8.410159349441528E-001,-6.688040681183338E-003,6.138867884874344E-002,-5.227066278457642E-001,-8.410159349441528E-001,
7.067333333333334E+008,8.913443307392299E-004,5.617042630910873E-002,-5.678629875183106E-001,-7.780256271362305E-001,8.913443307392299E-004,5.617042630910873E-002,-5.678629875183106E-001,-7.780256271362305E-001,
7.151000000000000E+008,2.761611947789788E-003,4.819202423095703E-002,-5.877680182456970E-001,-7.926557660102844E-001,2.761611947789788E-003,4.819202423095703E-002,-5.877680182456970E-001,-7.926557660102844E-001,
7.234666666666666E+008,7.136210915632546E-004,4.257343709468842E-002,-6.000907421112061E-001,-7.805374860763550E-001,7.136210915632546E-004,4.257343709468842E-002,-6.000907421112061E-001,-7.805374860763550E-001,
7.318333333333334E+008,-5.059522576630116E-003,4.002619162201881E-002,-6.137817502021790E-001,-7.781449556350708E-001,-5.059522576630116E-003,4.002619162201881E-002,-6.137817502021790E-001,-7.781449556350708E-001,
7.402000000000000E+008,-1.043357420712709E-002,4.025512933731079E-002,-6.589929461479187E-001,-7.614094018936157E-001,-1.043357420712709E-002,4.025512933731079E-002,-6.589929461479187E-001,-7.614094018936157E-001,
7.485666666666666E+008,-1.593848317861557E-002,4.603713378310204E-002,-6.569719314575195E-001,-7.566635608673096E-001,-1.593848317861557E-002,4.603713378310204E-002,-6.569719314575195E-001,-7.566635608673096E-001,
7.569333333333334E+008,-1.594859547913075E-002,5.356248095631599E-002,-6.658027768135071E-001,-7.357825636863709E-001,-1.594859547913075E-002,5.356248095631599E-002,-6.658027768135071E-001,-7.357825636863709E-001,
7.653000000000000E+008,-9.688501246273518E-003,6.055232137441635E-002,-6.839017868041992E-001,-7.159587144851685E-001,-9.688501246273518E-003,6.055232137441635E-002,-6.839017868041992E-001,-7.159587144851685E-001,
7.736666666666666E+008,-1.524993451312184E-003,6.653003394603729E-002,-7.172386646270752E-001,-6.902251839637756E-001,-1.524993451312184E-003,6.653003394603729E-002,-7.172386646270752E-001,-6.902251839637756E-001,
7.820333333333334E+008,8.865731768310070E-003,6.859817355871201E-002,-7.280639410018921E-001,-6.768465638160706E-001,8.865731768310070E-003,6.859817355871201E-002,-7.280639410018921E-001,-6.768465638160706E-001,
7.904000000000000E+008,2.050421200692654E-002,6.656886637210846E-002,-7.311311364173889E-001,-6.548940539360046E-001,2.050421200692654E-002,6.656886637210846E-002,-7.311311364173889E-001,-6.548940539360046E-001,
7.987666666666666E+008,2.629348076879978E-002,6.067329272627831E-002,-7.683965563774109E-001,-6.354939937591553E-001,2.629348076879978E-002,6.067329272627831E-002,-7.683965563774109E-001,-6.354939937591553E-001,
8.071333333333334E+008,3.019081987440586E-002,5.466141179203987E-002,-7.710839509963989E-001,-6.237274408340454E-001,3.019081987440586E-002,5.466141179203987E-002,-7.710839509963989E-001,-6.237274408340454E-001,
8.155000000000000E+008,2.558519504964352E-002,4.797784239053726E-002,-7.943057417869568E-001,-6.018784046173096E-001,2.558519504964352E-002,4.797784239053726E-002,-7.943057417869568E-001,-6.018784046173096E-001,
8.238666666666666E+008,2.275553904473782E-002,4.272411018610001E-002,-7.963019013404846E-001,-5.730264782905579E-001,2.275553904473782E-002,4.272411018610001E-002,-7.963019013404846E-001,-5.730264782905579E-001,
8.322333333333334E+008,1.644351892173290E-002,4.268823564052582E-002,-8.181235194206238E-001,-5.528794527053833E-001,1.644351892173290E-002,4.268823564052582E-002,-8.181235194206238E-001,-5.528794527053833E-001,
8.406000000000000E+008,1.173740439116955E-002,4.559578374028206E-002,-8.290194272994995E-001,-5.400583744049072E-001,1.173740439116955E-002,4.559578374028206E-002,-8.290194272994995E-001,-5.400583744049072E-001,
8.489666666666668E+008,9.570578113198280E-003,5.220123380422592E-002,-8.401759862899780E-001,-5.243470668792725E-001,9.570578113198280E-003,5.220123380422592E-002,-8.401759862899780E-001,-5.243470668792725E-001,
8.573333333333334E+008,1.235654298216105E-002,5.916116014122963E-002,-8.575214147567749E-001,-4.831613898277283E-001,1.235654298216105E-002,5.916116014122963E-002,-8.575214147567749E-001,-4.831613898277283E-001,
8.657000000000000E+008,2.236341126263142E-002,6.457337737083435E-002,-8.730100393295288E-001,-4.632713794708252E-001,2.236341126263142E-002,6.457337737083435E-002,-8.730100393295288E-001,-4.632713794708252E-001,
8.740666666666668E+008,3.113413602113724E-002,6.611175835132599E-002,-8.711177110671997E-001,-4.513120055198669E-001,3.113413602113724E-002,6.611175835132599E-002,-8.711177110671997E-001,-4.513120055198669E-001,
8.824333333333334E+008,4.197306931018829E-002,6.462924182415009E-002,-8.885555267333984E-001,-4.356007575988770E-001,4.197306931018829E-002,6.462924182415009E-002,-8.885555267333984E-001,-4.356007575988770E-001,
8.908000000000000E+008,5.184500291943550E-002,5.836634710431099E-002,-8.885445594787598E-001,-4.034318029880524E-001,5.184500291943550E-002,5.836634710431099E-002,-8.885445594787598E-001,-4.034318029880524E-001,
8.991666666666668E+008,5.584663152694702E-002,5.055465921759605E-002,-9.030183553695679E-001,-3.759407103061676E-001,5.584663152694702E-002,5.055465921759605E-002,-9.030183553695679E-001,-3.759407103061676E-001,
9.075333333333334E+008,5.708521977066994E-002,4.242923110723496E-002,-9.332945942878723E-001,-3.571598529815674E-001,5.708521977066994E-002,4.242923110723496E-002,-9.332945942878723E-001,-3.571598529815674E-001,
9.159000000000000E+008,5.473919585347176E-002,3.837850317358971E-002,-9.394887089729309E-001,-3.287237286567688E-001,5.473919585347176E-002,3.837850317358971E-002,-9.394887089729309E-001,-3.287237286567688E-001,
9.242666666666668E+008,4.980174079537392E-002,3.400315344333649E-002,-9.446439146995544E-001,-3.145257234573364E-001,4.980174079537392E-002,3.400315344333649E-002,-9.446439146995544E-001,-3.145257234573364E-001,
9.326333333333334E+008,4.277909919619560E-002,3.375634923577309E-002,-9.657080173492432E-001,-2.903674244880676E-001,4.277909919619560E-002,3.375634923577309E-002,-9.657080173492432E-001,-2.903674244880676E-001,
9.410000000000000E+008,3.954325616359711E-002,3.705789148807526E-002,-9.584766030311585E-001,-2.571451663970947E-001,3.954325616359711E-002,3.705789148807526E-002,-9.584766030311585E-001,-2.571451663970947E-001,
9.493666666666668E+008,3.911683335900307E-002,4.194363951683044E-002,-9.567700028419495E-001,-2.391439825296402E-001,3.911683335900307E-002,4.194363951683044E-002,-9.567700028419495E-001,-2.391439825296402E-001,
9.577333333333334E+008,4.235936701297760E-002,4.897071421146393E-002,-9.727047681808472E-001,-2.146171033382416E-001,4.235936701297760E-002,4.897071421146393E-002,-9.727047681808472E-001,-2.146171033382416E-001,
9.661000000000000E+008,5.203387513756752E-002,5.366815254092217E-002,-9.700720906257629E-001,-1.904264837503433E-001,5.203387513756752E-002,5.366815254092217E-002,-9.700720906257629E-001,-1.904264837503433E-001,
9.744666666666668E+008,6.029928848147392E-002,5.236940085887909E-002,-9.749172329902649E-001,-1.665816307067871E-001,6.029928848147392E-002,5.236940085887909E-002,-9.749172329902649E-001,-1.665816307067871E-001,
9.828333333333334E+008,7.412671297788620E-002,4.747904837131500E-002,-9.776967167854309E-001,-1.450173705816269E-001,7.412671297788620E-002,4.747904837131500E-002,-9.776967167854309E-001,-1.450173705816269E-001,
9.912000000000000E+008,8.192780613899231E-002,3.937713429331780E-002,-9.770491123199463E-001,-1.187357306480408E-001,8.192780613899231E-002,3.937713429331780E-002,-9.770491123199463E-001,-1.187357306480408E-001,
9.995666666666668E+008,8.768993616104126E-002,2.848266623914242E-002,-9.922567009925842E-001,-8.111911267042160E-002,8.768993616104126E-002,2.848266623914242E-002,-9.922567009925842E-001,-8.111911267042160E-002,
1.007933333333333E+009,8.757899701595306E-002,1.761978678405285E-002,-9.900208711624146E-001,-6.630070507526398E-002,8.757899701595306E-002,1.761978678405285E-002,-9.900208711624146E-001,-6.630070507526398E-002,
1.016300000000000E+009,8.132006973028183E-002,1.019980199635029E-002,-9.918891787528992E-001,-4.027773439884186E-002,8.132006973028183E-002,1.019980199635029E-002,-9.918891787528992E-001,-4.027773439884186E-002,
1.024666666666667E+009,7.386193424463272E-002,2.917096018791199E-003,-9.925268888473511E-001,-8.027147501707077E-003,7.386193424463272E-002,2.917096018791199E-003,-9.925268888473511E-001,-8.027147501707077E-003,
1.033033333333333E+009,6.669775396585465E-002,4.328314680606127E-003,-9.915336966514587E-001,1.077171787619591E-002,6.669775396585465E-002,4.328314680606127E-003,-9.915336966514587E-001,1.077171787619591E-002,
1.041400000000000E+009,6.036058068275452E-002,8.805134333670139E-003,-9.778568744659424E-001,4.913257062435150E-002,6.036058068275452E-002,8.805134333670139E-003,-9.778568744659424E-001,4.913257062435150E-002,
1.049766666666667E+009,5.949765443801880E-002,1.516679953783751E-002,-9.901223778724670E-001,6.978900730609894E-002,5.949765443801880E-002,1.516679953783751E-002,-9.901223778724670E-001,6.978900730609894E-002,
1.058133333333333E+009,6.501910835504532E-002,1.989994011819363E-002,-9.839360713958740E-001,8.831822872161865E-002,6.501910835504532E-002,1.989994011819363E-002,-9.839360713958740E-001,8.831822872161865E-002,
1.066500000000000E+009,7.567885518074036E-002,2.131803333759308E-002,-9.900774955749512E-001,1.282802075147629E-001,7.567885518074036E-002,2.131803333759308E-002,-9.900774955749512E-001,1.282802075147629E-001,
1.074866666666667E+009,8.585232496261597E-002,1.794442534446716E-002,-9.727985858917236E-001,1.448959857225418E-001,8.585232496261597E-002,1.794442534446716E-002,-9.727985858917236E-001,1.448959857225418E-001,
1.083233333333334E+009,9.607220441102982E-002,4.588925745338202E-003,-9.698133468627930E-001,1.665132641792297E-001,9.607220441102982E-002,4.588925745338202E-003,-9.698133468627930E-001,1.665132641792297E-001,
1.091600000000000E+009,1.017977818846703E-001,-7.408927194774151E-003,-9.607288241386414E-001,1.876172423362732E-001,1.017977818846703E-001,-7.408927194774151E-003,-9.607288241386414E-001,1.876172423362732E-001,
1.099966666666667E+009,1.021765395998955E-001,-2.376676909625530E-002,-9.625402092933655E-001,2.261604964733124E-001,1.021765395998955E-001,-2.376676909625530E-002,-9.625402092933655E-001,2.261604964733124E-001,
1.108333333333334E+009,9.225469082593918E-002,-3.553716093301773E-002,-9.408833980560303E-001,2.297184616327286E-001,9.225469082593918E-002,-3.553716093301773E-002,-9.408833980560303E-001,2.297184616327286E-001,
1.116700000000000E+009,7.721355557441711E-002,-3.674376755952835E-002,-9.413676857948303E-001,2.732504904270172E-001,7.721355557441711E-002,-3.674376755952835E-002,-9.413676857948303E-001,2.732504904270172E-001,
1.125066666666667E+009,6.444157660007477E-002,-3.764182329177856E-002,-9.463197588920593E-001,2.829159796237946E-001,6.444157660007477E-002,-3.764182329177856E-002,-9.463197588920593E-001,2.829159796237946E-001,
1.133433333333334E+009,5.437591299414635E-002,-2.693586423993111E-002,-9.467628002166748E-001,3.087354004383087E-001,5.437591299414635E-002,-2.693586423993111E-002,-9.467628002166748E-001,3.087354004383087E-001,
1.141800000000000E+009,5.242876708507538E-002,-1.677852123975754E-002,-9.191368222236633E-001,3.299864828586578E-001,5.242876708507538E-002,-1.677852123975754E-002,-9.191368222236633E-001,3.299864828586578E-001,
1.150166666666667E+009,5.811005458235741E-002,-4.211469087749720E-003,-9.021810293197632E-001,3.610308170318604E-001,5.811005458235741E-002,-4.211469087749720E-003,-9.021810293197632E-001,3.610308170318604E-001,
1.158533333333334E+009,7.139319926500320E-002,9.166824747808278E-004,-9.043437838554382E-001,3.864365518093109E-001,7.139319926500320E-002,9.166824747808278E-004,-9.043437838554382E-001,3.864365518093109E-001,
1.166900000000000E+009,8.928750455379486E-002,-2.870358061045408E-003,-8.934599161148071E-001,4.207367897033691E-001,8.928750455379486E-002,-2.870358061045408E-003,-8.934599161148071E-001,4.207367897033691E-001,
1.175266666666667E+009,1.024476960301399E-001,-1.698321849107742E-002,-8.831650018692017E-001,4.264180362224579E-001,1.024476960301399E-001,-1.698321849107742E-002,-8.831650018692017E-001,4.264180362224579E-001,
1.183633333333334E+009,1.116067692637444E-001,-3.581122308969498E-002,-8.694722652435303E-001,4.629786908626556E-001,1.116067692637444E-001,-3.581122308969498E-002,-8.694722652435303E-001,4.629786908626556E-001,
1.192000000000000E+009,1.104936301708221E-001,-5.835494399070740E-002,-8.591136336326599E-001,4.689823091030121E-001,1.104936301708221E-001,-5.835494399070740E-002,-8.591136336326599E-001,4.689823091030121E-001,
1.200366666666667E+009,9.764678031206131E-002,-7.504811882972717E-002,-8.490632176399231E-001,4.962275624275208E-001,9.764678031206131E-002,-7.504811882972717E-002,-8.490632176399231E-001,4.962275624275208E-001,
1.208733333333334E+009,8.055415004491806E-002,-8.558262884616852E-002,-8.434937596321106E-001,5.128037929534912E-001,8.055415004491806E-002,-8.558262884616852E-002,-8.434937596321106E-001,5.128037929534912E-001,
1.217100000000000E+009,6.054381281137466E-002,-8.336605876684189E-002,-8.300734758377075E-001,5.320597887039185E-001,6.054381281137466E-002,-8.336605876684189E-002,-8.300734758377075E-001,5.320597887039185E-001,
1.225466666666667E+009,4.719535261392593E-002,-7.589392364025116E-002,-8.048498034477234E-001,5.587904453277588E-001,4.719535261392593E-002,-7.589392364025116E-002,-8.048498034477234E-001,5.587904453277588E-001,
1.233833333333334E+009,3.952674940228462E-002,-6.040059030056000E-002,-7.897729277610779E-001,5.781856179237366E-001,3.952674940228462E-002,-6.040059030056000E-002,-7.897729277610779E-001,5.781856179237366E-001,
1.242200000000000E+009,4.180991649627686E-002,-4.524423927068710E-002,-7.757464647293091E-001,5.926006436347961E-001,4.180991649627686E-002,-4.524423927068710E-002,-7.757464647293091E-001,5.926006436347961E-001,
1.250566666666667E+009,5.487848073244095E-002,-3.752630576491356E-002,-7.472841143608093E-001,6.203855872154236E-001,5.487848073244095E-002,-3.752630576491356E-002,-7.472841143608093E-001,6.203855872154236E-001,
1.258933333333334E+009,7.023844122886658E-002,-3.927371278405190E-002,-7.575026154518127E-001,6.415711045265198E-001,7.023844122886658E-002,-3.927371278405190E-002,-7.575026154518127E-001,6.415711045265198E-001,
1.267300000000000E+009,8.458260446786881E-002,-5.301830172538757E-002,-7.343672513961792E-001,6.543852090835571E-001,8.458260446786881E-002,-5.301830172538757E-002,-7.343672513961792E-001,6.543852090835571E-001,
1.275666666666667E+009,9.221506118774414E-002,-7.372888922691345E-002,-6.995912790298462E-001,6.769571900367737E-001,9.221506118774414E-002,-7.372888922691345E-002,-6.995912790298462E-001,6.769571900367737E-001,
1.284033333333334E+009,8.804608136415482E-002,-9.730052202939987E-002,-6.926853656768799E-001,6.949813365936279E-001,8.804608136415482E-002,-9.730052202939987E-002,-6.926853656768799E-001,6.949813365936279E-001,
1.292400000000000E+009,7.347183674573898E-002,-1.166191101074219E-001,-6.794921159744263E-001,7.089141607284546E-001,7.347183674573898E-002,-1.166191101074219E-001,-6.794921159744263E-001,7.089141607284546E-001,
1.300766666666667E+009,5.286791920661926E-002,-1.251757442951202E-001,-6.562520861625671E-001,7.226603031158447E-001,5.286791920661926E-002,-1.251757442951202E-001,-6.562520861625671E-001,7.226603031158447E-001,
1.309133333333334E+009,2.837429940700531E-002,-1.237691044807434E-001,-6.452394127845764E-001,7.399095296859741E-001,2.837429940700531E-002,-1.237691044807434E-001,-6.452394127845764E-001,7.399095296859741E-001,
1.317500000000000E+009,1.315288897603750E-002,-1.129477098584175E-001,-6.228533387184143E-001,7.537263631820679E-001,1.315288897603750E-002,-1.129477098584175E-001,-6.228533387184143E-001,7.537263631820679E-001,
1.325866666666667E+009,4.963510204106569E-003,-9.386879205703735E-002,-6.075933575630188E-001,7.685726284980774E-001,4.963510204106569E-003,-9.386879205703735E-002,-6.075933575630188E-001,7.685726284980774E-001,
1.334233333333334E+009,9.022760204970837E-003,-7.733513414859772E-002,-5.797352194786072E-001,7.905426025390625E-001,9.022760204970837E-003,-7.733513414859772E-002,-5.797352194786072E-001,7.905426025390625E-001,
1.342600000000000E+009,1.981111988425255E-002,-6.955945491790772E-002,-5.599169135093689E-001,8.101400136947632E-001,1.981111988425255E-002,-6.955945491790772E-002,-5.599169135093689E-001,8.101400136947632E-001,
1.350966666666667E+009,3.475753590464592E-002,-7.227355986833572E-002,-5.295593142509460E-001,8.346486091613770E-001,3.475753590464592E-002,-7.227355986833572E-002,-5.295593142509460E-001,8.346486091613770E-001,
1.359333333333334E+009,4.746498912572861E-002,-8.546954393386841E-002,-5.163109898567200E-001,8.366261124610901E-001,4.746498912572861E-002,-8.546954393386841E-002,-5.163109898567200E-001,8.366261124610901E-001,
1.367700000000000E+009,4.608678445219994E-002,-1.065591648221016E-001,-4.972048699855804E-001,8.444798588752747E-001,4.608678445219994E-002,-1.065591648221016E-001,-4.972048699855804E-001,8.444798588752747E-001,
1.376066666666667E+009,3.756418824195862E-002,-1.257784217596054E-001,-4.813667237758637E-001,8.589249253273010E-001,3.756418824195862E-002,-1.257784217596054E-001,-4.813667237758637E-001,8.589249253273010E-001,
1.384433333333334E+009,1.688908785581589E-002,-1.426832377910614E-001,-4.547196626663208E-001,8.773974180221558E-001,1.688908785581589E-002,-1.426832377910614E-001,-4.547196626663208E-001,8.773974180221558E-001,
1.392800000000000E+009,-7.910319603979588E-003,-1.458643823862076E-001,-4.423420429229736E-001,8.723634481430054E-001,-7.910319603979588E-003,-1.458643823862076E-001,-4.423420429229736E-001,8.723634481430054E-001,
1.401166666666667E+009,-3.085256740450859E-002,-1.370607614517212E-001,-4.197714924812317E-001,8.897117972373962E-001,-3.085256740450859E-002,-1.370607614517212E-001,-4.197714924812317E-001,8.897117972373962E-001,
1.409533333333334E+009,-4.661608859896660E-002,-1.195848211646080E-001,-3.897680938243866E-001,9.013395309448242E-001,-4.661608859896660E-002,-1.195848211646080E-001,-3.897680938243866E-001,9.013395309448242E-001,
1.417900000000000E+009,-5.103513225913048E-002,-9.489868581295013E-002,-3.783583045005798E-001,8.970909118652344E-001,-5.103513225913048E-002,-9.489868581295013E-002,-3.783583045005798E-001,8.970909118652344E-001,
1.426266666666667E+009,-4.290829598903656E-002,-7.757016271352768E-002,-3.470922410488129E-001,9.225513339042664E-001,-4.290829598903656E-002,-7.757016271352768E-002,-3.470922410488129E-001,9.225513339042664E-001,
1.434633333333334E+009,-2.701485343277454E-002,-6.649395823478699E-002,-3.130877912044525E-001,9.335322380065918E-001,-2.701485343277454E-002,-6.649395823478699E-002,-3.130877912044525E-001,9.335322380065918E-001,
1.443000000000000E+009,-1.048445794731379E-002,-6.744407117366791E-002,-2.956160604953766E-001,9.378228783607483E-001,-1.048445794731379E-002,-6.744407117366791E-002,-2.956160604953766E-001,9.378228783607483E-001,
1.451366666666667E+009,2.160870935767889E-003,-7.950644940137863E-002,-2.622867524623871E-001,9.410055279731751E-001,2.160870935767889E-003,-7.950644940137863E-002,-2.622867524623871E-001,9.410055279731751E-001,
1.459733333333334E+009,5.412949249148369E-003,-1.013967394828796E-001,-2.433447092771530E-001,9.440985321998596E-001,5.412949249148369E-003,-1.013967394828796E-001,-2.433447092771530E-001,9.440985321998596E-001,
