% Version 1.00
%
%freq[Hz],re:Trc1_S11,im:Trc1_S11,re:Trc2_S21,im:Trc2_S21,re:Trc3_S11,im:Trc3_S11,re:Trc4_S21,im:Trc4_S21,
6.900000000000000E+008,-1.676456816494465E-002,1.583117991685867E-002,-4.663699567317963E-001,-8.710922002792358E-001,-1.676456816494465E-002,1.583117991685867E-002,-4.663699567317963E-001,-8.710922002792358E-001,
6.983666666666666E+008,-7.283901795744896E-003,1.649924740195274E-002,-4.895847141742706E-001,-8.640863299369812E-001,-7.283901795744896E-003,1.649924740195274E-002,-4.895847141742706E-001,-8.640863299369812E-001,
7.067333333333334E+008,-7.764688343741000E-004,1.132765877991915E-002,-5.365892648696899E-001,-8.027511239051819E-001,-7.764688343741000E-004,1.132765877991915E-002,-5.365892648696899E-001,-8.027511239051819E-001,
7.151000000000000E+008,-3.520344034768641E-004,3.238335950300098E-003,-5.545885562896729E-001,-8.175979852676392E-001,-3.520344034768641E-004,3.238335950300098E-003,-5.545885562896729E-001,-8.175979852676392E-001,
7.234666666666666E+008,-3.809267655014992E-003,-2.570346463471651E-003,-5.672073364257813E-001,-8.066205978393555E-001,-3.809267655014992E-003,-2.570346463471651E-003,-5.672073364257813E-001,-8.066205978393555E-001,
7.318333333333334E+008,-1.103597972542048E-002,-5.668044555932283E-003,-5.833348631858826E-001,-8.050584793090820E-001,-1.103597972542048E-002,-5.668044555932283E-003,-5.833348631858826E-001,-8.050584793090820E-001,
7.402000000000000E+008,-1.811539754271507E-002,-6.031150929629803E-003,-6.259006857872009E-001,-7.899191379547119E-001,-1.811539754271507E-002,-6.031150929629803E-003,-6.259006857872009E-001,-7.899191379547119E-001,
7.485666666666666E+008,-2.607110515236855E-002,-8.313909638673067E-004,-6.248430013656616E-001,-7.867063283920288E-001,-2.607110515236855E-002,-8.313909638673067E-004,-6.248430013656616E-001,-7.867063283920288E-001,
7.569333333333334E+008,-2.843767777085304E-002,6.327572278678417E-003,-6.322079896926880E-001,-7.655178308486939E-001,-2.843767777085304E-002,6.327572278678417E-003,-6.322079896926880E-001,-7.655178308486939E-001,
7.653000000000000E+008,-2.495265193283558E-002,1.320656668394804E-002,-6.537635922431946E-001,-7.479447722434998E-001,-2.495265193283558E-002,1.320656668394804E-002,-6.537635922431946E-001,-7.479447722434998E-001,
7.736666666666666E+008,-1.873109117150307E-002,1.924972236156464E-002,-6.858052015304565E-001,-7.220207452774048E-001,-1.873109117150307E-002,1.924972236156464E-002,-6.858052015304565E-001,-7.220207452774048E-001,
7.820333333333334E+008,-1.039334014058113E-002,2.193671092391014E-002,-6.976267695426941E-001,-7.117784023284912E-001,-1.039334014058113E-002,2.193671092391014E-002,-6.976267695426941E-001,-7.117784023284912E-001,
7.904000000000000E+008,-7.173384656198323E-004,2.071241103112698E-002,-7.033246159553528E-001,-6.902289390563965E-001,-7.173384656198323E-004,2.071241103112698E-002,-7.033246159553528E-001,-6.902289390563965E-001,
7.987666666666666E+008,3.812675829976797E-003,1.542579289525747E-002,-7.374662160873413E-001,-6.710193753242493E-001,3.812675829976797E-003,1.542579289525747E-002,-7.374662160873413E-001,-6.710193753242493E-001,
8.071333333333334E+008,6.592749617993832E-003,1.019075699150562E-002,-7.433391213417053E-001,-6.598932743072510E-001,6.592749617993832E-003,1.019075699150562E-002,-7.433391213417053E-001,-6.598932743072510E-001,
8.155000000000000E+008,9.725021664053202E-004,3.483939450234175E-003,-7.670131921768189E-001,-6.394669413566589E-001,9.725021664053202E-004,3.483939450234175E-003,-7.670131921768189E-001,-6.394669413566589E-001,
8.238666666666666E+008,-3.455239348113537E-003,-7.511311559937894E-004,-7.698447108268738E-001,-6.112637519836426E-001,-3.455239348113537E-003,-7.511311559937894E-004,-7.698447108268738E-001,-6.112637519836426E-001,
8.322333333333334E+008,-1.143153663724661E-002,-9.854043601080775E-004,-7.911657691001892E-001,-5.925857424736023E-001,-1.143153663724661E-002,-9.854043601080775E-004,-7.911657691001892E-001,-5.925857424736023E-001,
8.406000000000000E+008,-1.843383163213730E-002,2.622829284518957E-003,-8.030467033386231E-001,-5.812195539474487E-001,-1.843383163213730E-002,2.622829284518957E-003,-8.030467033386231E-001,-5.812195539474487E-001,
8.489666666666668E+008,-2.313448861241341E-002,8.942940272390842E-003,-8.135930895805359E-001,-5.670803189277649E-001,-2.313448861241341E-002,8.942940272390842E-003,-8.135930895805359E-001,-5.670803189277649E-001,
8.573333333333334E+008,-2.228882163763046E-002,1.678909175097942E-002,-8.332990407943726E-001,-5.290089845657349E-001,-2.228882163763046E-002,1.678909175097942E-002,-8.332990407943726E-001,-5.290089845657349E-001,
8.657000000000000E+008,-1.604698039591312E-002,2.354154549539089E-002,-8.511973619461060E-001,-5.096719264984131E-001,-1.604698039591312E-002,2.354154549539089E-002,-8.511973619461060E-001,-5.096719264984131E-001,
8.740666666666668E+008,-9.217881597578526E-003,2.668716013431549E-002,-8.498054146766663E-001,-4.990003108978272E-001,-9.217881597578526E-003,2.668716013431549E-002,-8.498054146766663E-001,-4.990003108978272E-001,
8.824333333333334E+008,6.650798241025768E-006,2.652723155915737E-002,-8.673372864723206E-001,-4.831235706806183E-001,6.650798241025768E-006,2.652723155915737E-002,-8.673372864723206E-001,-4.831235706806183E-001,
8.908000000000000E+008,8.434109389781952E-003,2.227960526943207E-002,-8.705580234527588E-001,-4.511092007160187E-001,8.434109389781952E-003,2.227960526943207E-002,-8.705580234527588E-001,-4.511092007160187E-001,
8.991666666666668E+008,1.204840932041407E-002,1.600226014852524E-002,-8.856523633003235E-001,-4.253082275390625E-001,1.204840932041407E-002,1.600226014852524E-002,-8.856523633003235E-001,-4.253082275390625E-001,
9.075333333333334E+008,1.163484249264002E-002,9.126812219619751E-003,-9.169682860374451E-001,-4.079332351684570E-001,1.163484249264002E-002,9.126812219619751E-003,-9.169682860374451E-001,-4.079332351684570E-001,
9.159000000000000E+008,8.226063102483749E-003,6.371826399117708E-003,-9.220479726791382E-001,-3.791606128215790E-001,8.226063102483749E-003,6.371826399117708E-003,-9.220479726791382E-001,-3.791606128215790E-001,
9.242666666666668E+008,2.366122789680958E-003,3.169148927554488E-003,-9.286226034164429E-001,-3.660137355327606E-001,2.366122789680958E-003,3.169148927554488E-003,-9.286226034164429E-001,-3.660137355327606E-001,
9.326333333333334E+008,-6.218234077095985E-003,3.707627300173044E-003,-9.508849382400513E-001,-3.438688218593597E-001,-6.218234077095985E-003,3.707627300173044E-003,-9.508849382400513E-001,-3.438688218593597E-001,
9.410000000000000E+008,-1.106184069067240E-002,7.962835021317005E-003,-9.438319206237793E-001,-3.116956353187561E-001,-1.106184069067240E-002,7.962835021317005E-003,-9.438319206237793E-001,-3.116956353187561E-001,
9.493666666666668E+008,-1.398331392556429E-002,1.449701096862555E-002,-9.443234205245972E-001,-2.933461964130402E-001,-1.398331392556429E-002,1.449701096862555E-002,-9.443234205245972E-001,-2.933461964130402E-001,
9.577333333333334E+008,-1.285908278077841E-002,2.321277558803558E-002,-9.611060619354248E-001,-2.708213031291962E-001,-1.285908278077841E-002,2.321277558803558E-002,-9.611060619354248E-001,-2.708213031291962E-001,
9.661000000000000E+008,-6.538528017699719E-003,3.058002516627312E-002,-9.606791138648987E-001,-2.473396658897400E-001,-6.538528017699719E-003,3.058002516627312E-002,-9.606791138648987E-001,-2.473396658897400E-001,
9.744666666666668E+008,1.112748868763447E-003,3.212279453873634E-002,-9.680636525154114E-001,-2.234624475240707E-001,1.112748868763447E-003,3.212279453873634E-002,-9.680636525154114E-001,-2.234624475240707E-001,
9.828333333333334E+008,1.365912798792124E-002,3.017153404653072E-002,-9.719331264495850E-001,-2.029581069946289E-001,1.365912798792124E-002,3.017153404653072E-002,-9.719331264495850E-001,-2.029581069946289E-001,
9.912000000000000E+008,2.079401910305023E-002,2.458617463707924E-002,-9.731210470199585E-001,-1.756194531917572E-001,2.079401910305023E-002,2.458617463707924E-002,-9.731210470199585E-001,-1.756194531917572E-001,
9.995666666666668E+008,2.719968557357788E-002,1.667174324393272E-002,-9.901541471481323E-001,-1.395944654941559E-001,2.719968557357788E-002,1.667174324393272E-002,-9.901541471481323E-001,-1.395944654941559E-001,
1.007933333333333E+009,2.699201926589012E-002,7.605118677020073E-003,-9.870269894599915E-001,-1.252798140048981E-001,2.699201926589012E-002,7.605118677020073E-003,-9.870269894599915E-001,-1.252798140048981E-001,
1.016300000000000E+009,2.105197124183178E-002,1.833310234360397E-003,-9.912409186363220E-001,-9.767176955938339E-002,2.105197124183178E-002,1.833310234360397E-003,-9.912409186363220E-001,-9.767176955938339E-002,
1.024666666666667E+009,1.330013759434223E-002,-4.522551782429218E-003,-9.930980801582336E-001,-6.676685810089111E-002,1.330013759434223E-002,-4.522551782429218E-003,-9.930980801582336E-001,-6.676685810089111E-002,
1.033033333333333E+009,5.425910465419292E-003,-1.608839025720954E-003,-9.938776493072510E-001,-4.868611320853233E-002,5.425910465419292E-003,-1.608839025720954E-003,-9.938776493072510E-001,-4.868611320853233E-002,
1.041400000000000E+009,-1.887602848000825E-003,4.374574869871140E-003,-9.817795753479004E-001,-1.025012508034706E-002,-1.887602848000825E-003,4.374574869871140E-003,-9.817795753479004E-001,-1.025012508034706E-002,
1.049766666666667E+009,-4.636639729142189E-003,1.319550070911646E-002,-9.942882657051086E-001,9.019509889185429E-003,-4.636639729142189E-003,1.319550070911646E-002,-9.942882657051086E-001,9.019509889185429E-003,
1.058133333333333E+009,-6.913704564794898E-004,2.058832533657551E-002,-9.904979467391968E-001,2.622612379491329E-002,-6.913704564794898E-004,2.058832533657551E-002,-9.904979467391968E-001,2.622612379491329E-002,
1.066500000000000E+009,8.176746778190136E-003,2.616657316684723E-002,-9.995287060737610E-001,6.402213126420975E-002,8.176746778190136E-003,2.616657316684723E-002,-9.995287060737610E-001,6.402213126420975E-002,
1.074866666666667E+009,1.856025308370590E-002,2.540550194680691E-002,-9.840280413627625E-001,8.369312435388565E-002,1.856025308370590E-002,2.540550194680691E-002,-9.840280413627625E-001,8.369312435388565E-002,
1.083233333333334E+009,2.934333868324757E-002,1.576983742415905E-002,-9.831696152687073E-001,1.046345159411430E-001,2.934333868324757E-002,1.576983742415905E-002,-9.831696152687073E-001,1.046345159411430E-001,
1.091600000000000E+009,3.602800518274307E-002,6.471527274698019E-003,-9.754331707954407E-001,1.265441328287125E-001,3.602800518274307E-002,6.471527274698019E-003,-9.754331707954407E-001,1.265441328287125E-001,
1.099966666666667E+009,3.719531372189522E-002,-6.924625951796770E-003,-9.809185266494751E-001,1.640292108058929E-001,3.719531372189522E-002,-6.924625951796770E-003,-9.809185266494751E-001,1.640292108058929E-001,
1.108333333333334E+009,2.862410247325897E-002,-1.760692335665226E-002,-9.588748216629028E-001,1.687370836734772E-001,2.862410247325897E-002,-1.760692335665226E-002,-9.588748216629028E-001,1.687370836734772E-001,
1.116700000000000E+009,1.600913703441620E-002,-1.806117966771126E-002,-9.608918428421021E-001,2.128148972988129E-001,1.600913703441620E-002,-1.806117966771126E-002,-9.608918428421021E-001,2.128148972988129E-001,
1.125066666666667E+009,2.109259366989136E-003,-1.804391667246819E-002,-9.665027856826782E-001,2.214454710483551E-001,2.109259366989136E-003,-1.804391667246819E-002,-9.665027856826782E-001,2.214454710483551E-001,
1.133433333333334E+009,-8.604912087321281E-003,-5.864704493433237E-003,-9.672515988349915E-001,2.466576397418976E-001,-8.604912087321281E-003,-5.864704493433237E-003,-9.672515988349915E-001,2.466576397418976E-001,
1.141800000000000E+009,-1.174102444201708E-002,6.516184657812119E-003,-9.422534108161926E-001,2.670116424560547E-001,-1.174102444201708E-002,6.516184657812119E-003,-9.422534108161926E-001,2.670116424560547E-001,
1.150166666666667E+009,-7.736266590654850E-003,2.280350029468536E-002,-9.285199642181397E-001,2.990015149116516E-001,-7.736266590654850E-003,2.280350029468536E-002,-9.285199642181397E-001,2.990015149116516E-001,
1.158533333333334E+009,4.943856038153172E-003,3.218146786093712E-002,-9.319465756416321E-001,3.235748112201691E-001,4.943856038153172E-003,3.218146786093712E-002,-9.319465756416321E-001,3.235748112201691E-001,
1.166900000000000E+009,2.308431081473827E-002,3.337476775050163E-002,-9.249811172485352E-001,3.566663563251495E-001,2.308431081473827E-002,3.337476775050163E-002,-9.249811172485352E-001,3.566663563251495E-001,
1.175266666666667E+009,3.880476951599121E-002,2.360306307673454E-002,-9.155851006507874E-001,3.629479408264160E-001,3.880476951599121E-002,2.360306307673454E-002,-9.155851006507874E-001,3.629479408264160E-001,
1.183633333333334E+009,5.096898600459099E-002,8.604187518358231E-003,-9.060158729553223E-001,4.019037783145905E-001,5.096898600459099E-002,8.604187518358231E-003,-9.060158729553223E-001,4.019037783145905E-001,
1.192000000000000E+009,5.318077281117439E-002,-1.187921967357397E-002,-8.962265253067017E-001,4.101197421550751E-001,5.318077281117439E-002,-1.187921967357397E-002,-8.962265253067017E-001,4.101197421550751E-001,
1.200366666666667E+009,4.379955679178238E-002,-2.783878892660141E-002,-8.896799683570862E-001,4.376557469367981E-001,4.379955679178238E-002,-2.783878892660141E-002,-8.896799683570862E-001,4.376557469367981E-001,
1.208733333333334E+009,2.897768281400204E-002,-3.868856653571129E-002,-8.845447897911072E-001,4.546178877353668E-001,2.897768281400204E-002,-3.868856653571129E-002,-8.845447897911072E-001,4.546178877353668E-001,
1.217100000000000E+009,1.054896600544453E-002,-3.599660098552704E-002,-8.708095550537109E-001,4.758161902427673E-001,1.054896600544453E-002,-3.599660098552704E-002,-8.708095550537109E-001,4.758161902427673E-001,
1.225466666666667E+009,-2.142982091754675E-003,-2.755455859005451E-002,-8.473955392837524E-001,5.031585693359375E-001,-2.142982091754675E-003,-2.755455859005451E-002,-8.473955392837524E-001,5.031585693359375E-001,
1.233833333333334E+009,-1.090363413095474E-002,-1.131331082433462E-002,-8.327739834785461E-001,5.212501883506775E-001,-1.090363413095474E-002,-1.131331082433462E-002,-8.327739834785461E-001,5.212501883506775E-001,
1.242200000000000E+009,-9.793308563530445E-003,6.844511721283197E-003,-8.192634582519531E-001,5.344204902648926E-001,-9.793308563530445E-003,6.844511721283197E-003,-8.192634582519531E-001,5.344204902648926E-001,
1.250566666666667E+009,3.373590530827642E-003,1.879993081092835E-002,-7.956169247627258E-001,5.632585883140564E-001,3.373590530827642E-003,1.879993081092835E-002,-7.956169247627258E-001,5.632585883140564E-001,
1.258933333333334E+009,2.081888541579247E-002,2.217399142682552E-002,-8.073239922523499E-001,5.835037231445313E-001,2.081888541579247E-002,2.217399142682552E-002,-8.073239922523499E-001,5.835037231445313E-001,
1.267300000000000E+009,3.881675377488136E-002,1.322515029460192E-002,-7.879965305328369E-001,5.979389548301697E-001,3.881675377488136E-002,1.322515029460192E-002,-7.879965305328369E-001,5.979389548301697E-001,
1.275666666666667E+009,5.025201290845871E-002,-4.536004271358252E-003,-7.574012279510498E-001,6.235983967781067E-001,5.025201290845871E-002,-4.536004271358252E-003,-7.574012279510498E-001,6.235983967781067E-001,
1.284033333333334E+009,5.105477571487427E-002,-2.630322985351086E-002,-7.492415904998779E-001,6.422733664512634E-001,5.105477571487427E-002,-2.630322985351086E-002,-7.492415904998779E-001,6.422733664512634E-001,
1.292400000000000E+009,4.133873060345650E-002,-4.546777531504631E-002,-7.388417124748230E-001,6.600130200386047E-001,4.133873060345650E-002,-4.546777531504631E-002,-7.388417124748230E-001,6.600130200386047E-001,
1.300766666666667E+009,2.351627685129643E-002,-5.590744316577911E-002,-7.158165574073792E-001,6.768099069595337E-001,2.351627685129643E-002,-5.590744316577911E-002,-7.158165574073792E-001,6.768099069595337E-001,
1.309133333333334E+009,1.852007233537734E-003,-5.544769391417503E-002,-7.051192522048950E-001,6.935881972312927E-001,1.852007233537734E-003,-5.544769391417503E-002,-7.051192522048950E-001,6.935881972312927E-001,
1.317500000000000E+009,-1.347958575934172E-002,-4.449905827641487E-002,-6.815325617790222E-001,7.092064619064331E-001,-1.347958575934172E-002,-4.449905827641487E-002,-6.815325617790222E-001,7.092064619064331E-001,
1.325866666666667E+009,-2.097246050834656E-002,-2.511147782206535E-002,-6.680674552917481E-001,7.248043417930603E-001,-2.097246050834656E-002,-2.511147782206535E-002,-6.680674552917481E-001,7.248043417930603E-001,
1.334233333333334E+009,-1.678164862096310E-002,-6.522613111883402E-003,-6.420996189117432E-001,7.461547851562500E-001,-1.678164862096310E-002,-6.522613111883402E-003,-6.420996189117432E-001,7.461547851562500E-001,
1.342600000000000E+009,-4.843520000576973E-003,4.941773600876331E-003,-6.243539452552795E-001,7.654516100883484E-001,-4.843520000576973E-003,4.941773600876331E-003,-6.243539452552795E-001,7.654516100883484E-001,
1.350966666666667E+009,1.297771092504263E-002,6.426849868148565E-003,-5.975369215011597E-001,7.919104099273682E-001,1.297771092504263E-002,6.426849868148565E-003,-5.975369215011597E-001,7.919104099273682E-001,
1.359333333333334E+009,2.908567152917385E-002,-2.870808122679591E-003,-5.878050923347473E-001,7.945789098739624E-001,2.908567152917385E-002,-2.870808122679591E-003,-5.878050923347473E-001,7.945789098739624E-001,
1.367700000000000E+009,3.396539390087128E-002,-2.285486087203026E-002,-5.697281360626221E-001,8.050948381423950E-001,3.396539390087128E-002,-2.285486087203026E-002,-5.697281360626221E-001,8.050948381423950E-001,
1.376066666666667E+009,3.107069246470928E-002,-4.217753559350967E-002,-5.545825362205505E-001,8.223540186882019E-001,3.107069246470928E-002,-4.217753559350967E-002,-5.545825362205505E-001,8.223540186882019E-001,
1.384433333333334E+009,1.542797125875950E-002,-6.095964834094048E-002,-5.314192771911621E-001,8.464226722717285E-001,1.542797125875950E-002,-6.095964834094048E-002,-5.314192771911621E-001,8.464226722717285E-001,
1.392800000000000E+009,-6.100102793425322E-003,-6.630558520555496E-002,-5.166948437690735E-001,8.401370048522949E-001,-6.100102793425322E-003,-6.630558520555496E-002,-5.166948437690735E-001,8.401370048522949E-001,
1.401166666666667E+009,-2.775598876178265E-002,-5.996650457382202E-002,-4.945831596851349E-001,8.613289594650269E-001,-2.775598876178265E-002,-5.996650457382202E-002,-4.945831596851349E-001,8.613289594650269E-001,
1.409533333333334E+009,-4.355951771140099E-002,-4.474157467484474E-002,-4.639089703559876E-001,8.729717135429382E-001,-4.355951771140099E-002,-4.474157467484474E-002,-4.639089703559876E-001,8.729717135429382E-001,
1.417900000000000E+009,-4.826648905873299E-002,-1.982434280216694E-002,-4.525021314620972E-001,8.680251836776733E-001,-4.826648905873299E-002,-1.982434280216694E-002,-4.525021314620972E-001,8.680251836776733E-001,
1.426266666666667E+009,-3.941602259874344E-002,-7.154978229664266E-004,-4.226767122745514E-001,8.941703438758850E-001,-3.941602259874344E-002,-7.154978229664266E-004,-4.226767122745514E-001,8.941703438758850E-001,
1.434633333333334E+009,-2.262900024652481E-002,1.349056605249643E-002,-3.921758234500885E-001,9.064312577247620E-001,-2.262900024652481E-002,1.349056605249643E-002,-3.921758234500885E-001,9.064312577247620E-001,
1.443000000000000E+009,-2.245357725769281E-003,1.591074839234352E-002,-3.763384222984314E-001,9.122136235237122E-001,-2.245357725769281E-003,1.591074839234352E-002,-3.763384222984314E-001,9.122136235237122E-001,
1.451366666666667E+009,1.505101379007101E-002,6.273149978369474E-003,-3.468419313430786E-001,9.180219173431397E-001,1.505101379007101E-002,6.273149978369474E-003,-3.468419313430786E-001,9.180219173431397E-001,
1.459733333333334E+009,2.481732331216335E-002,-1.425979379564524E-002,-3.291213512420654E-001,9.253144860267639E-001,2.481732331216335E-002,-1.425979379564524E-002,-3.291213512420654E-001,9.253144860267639E-001,
