% Version 1.00
%
%freq[Hz],re:Trc1_S11,im:Trc1_S11,re:Trc2_S21,im:Trc2_S21,re:Trc3_S11,im:Trc3_S11,re:Trc4_S21,im:Trc4_S21,
6.900000000000000E+008,-2.554635889828205E-002,5.066370218992233E-002,-4.945308268070221E-001,-8.527651429176331E-001,-2.554635889828205E-002,5.066370218992233E-002,-4.945308268070221E-001,-8.527651429176331E-001,
6.983666666666666E+008,-1.543059945106506E-002,5.150596424937248E-002,-5.168294310569763E-001,-8.443112373352051E-001,-1.543059945106506E-002,5.150596424937248E-002,-5.168294310569763E-001,-8.443112373352051E-001,
7.067333333333334E+008,-8.428763598203659E-003,4.650810360908508E-002,-5.626826286315918E-001,-7.825676798820496E-001,-8.428763598203659E-003,4.650810360908508E-002,-5.626826286315918E-001,-7.825676798820496E-001,
7.151000000000000E+008,-7.034002337604761E-003,3.899642080068588E-002,-5.818365216255188E-001,-7.969927191734314E-001,-7.034002337604761E-003,3.899642080068588E-002,-5.818365216255188E-001,-7.969927191734314E-001,
7.234666666666666E+008,-9.695951826870441E-003,3.371481597423554E-002,-5.931569933891296E-001,-7.848991751670837E-001,-9.695951826870441E-003,3.371481597423554E-002,-5.931569933891296E-001,-7.848991751670837E-001,
7.318333333333334E+008,-1.585494913160801E-002,3.151512145996094E-002,-6.085845232009888E-001,-7.832726836204529E-001,-1.585494913160801E-002,3.151512145996094E-002,-6.085845232009888E-001,-7.832726836204529E-001,
7.402000000000000E+008,-2.176266163587570E-002,3.195678442716599E-002,-6.531460881233215E-001,-7.663353085517883E-001,-2.176266163587570E-002,3.195678442716599E-002,-6.531460881233215E-001,-7.663353085517883E-001,
7.485666666666666E+008,-2.788281254470348E-002,3.813859075307846E-002,-6.522898674011231E-001,-7.622677087783814E-001,-2.788281254470348E-002,3.813859075307846E-002,-6.522898674011231E-001,-7.622677087783814E-001,
7.569333333333334E+008,-2.833012305200100E-002,4.605323076248169E-002,-6.598464846611023E-001,-7.405050396919251E-001,-2.833012305200100E-002,4.605323076248169E-002,-6.598464846611023E-001,-7.405050396919251E-001,
7.653000000000000E+008,-2.268813736736774E-002,5.351584777235985E-002,-6.786095499992371E-001,-7.212991714477539E-001,-2.268813736736774E-002,5.351584777235985E-002,-6.786095499992371E-001,-7.212991714477539E-001,
7.736666666666666E+008,-1.507367845624685E-002,5.965666100382805E-002,-7.108641862869263E-001,-6.959845423698425E-001,-1.507367845624685E-002,5.965666100382805E-002,-7.108641862869263E-001,-6.959845423698425E-001,
7.820333333333334E+008,-5.194666795432568E-003,6.220070645213127E-002,-7.226254343986511E-001,-6.832932233810425E-001,-5.194666795432568E-003,6.220070645213127E-002,-7.226254343986511E-001,-6.832932233810425E-001,
7.904000000000000E+008,5.907250568270683E-003,6.095652654767036E-002,-7.273644804954529E-001,-6.623827815055847E-001,5.907250568270683E-003,6.095652654767036E-002,-7.273644804954529E-001,-6.623827815055847E-001,
7.987666666666666E+008,1.136130560189486E-002,5.532736703753471E-002,-7.620590329170227E-001,-6.412190794944763E-001,1.136130560189486E-002,5.532736703753471E-002,-7.620590329170227E-001,-6.412190794944763E-001,
8.071333333333334E+008,1.496419683098793E-002,4.992496594786644E-002,-7.667365074157715E-001,-6.301219463348389E-001,1.496419683098793E-002,4.992496594786644E-002,-7.667365074157715E-001,-6.301219463348389E-001,
8.155000000000000E+008,9.904793463647366E-003,4.362151399254799E-002,-7.900463342666626E-001,-6.088607907295227E-001,9.904793463647366E-003,4.362151399254799E-002,-7.900463342666626E-001,-6.088607907295227E-001,
8.238666666666666E+008,6.807963363826275E-003,3.924906626343727E-002,-7.915856242179871E-001,-5.794317126274109E-001,6.807963363826275E-003,3.924906626343727E-002,-7.915856242179871E-001,-5.794317126274109E-001,
8.322333333333334E+008,7.541936793131754E-005,3.966122120618820E-002,-8.136332631111145E-001,-5.603138804435730E-001,7.541936793131754E-005,3.966122120618820E-002,-8.136332631111145E-001,-5.603138804435730E-001,
8.406000000000000E+008,-4.889440722763538E-003,4.341166839003563E-002,-8.248122334480286E-001,-5.477167367935181E-001,-4.889440722763538E-003,4.341166839003563E-002,-8.248122334480286E-001,-5.477167367935181E-001,
8.489666666666668E+008,-7.646912243217230E-003,5.052329599857330E-002,-8.359561562538147E-001,-5.321820974349976E-001,-7.646912243217230E-003,5.052329599857330E-002,-8.359561562538147E-001,-5.321820974349976E-001,
8.573333333333334E+008,-5.130870733410120E-003,5.805451050400734E-002,-8.531721830368042E-001,-4.916205406188965E-001,-5.130870733410120E-003,5.805451050400734E-002,-8.531721830368042E-001,-4.916205406188965E-001,
8.657000000000000E+008,4.340264014899731E-003,6.451639533042908E-002,-8.696873784065247E-001,-4.709922373294830E-001,4.340264014899731E-003,6.451639533042908E-002,-8.696873784065247E-001,-4.709922373294830E-001,
8.740666666666668E+008,1.280874386429787E-002,6.682407110929489E-002,-8.673704862594605E-001,-4.596369266510010E-001,1.280874386429787E-002,6.682407110929489E-002,-8.673704862594605E-001,-4.596369266510010E-001,
8.824333333333334E+008,2.354185655713081E-002,6.582047790288925E-002,-8.850776553153992E-001,-4.442881345748901E-001,2.354185655713081E-002,6.582047790288925E-002,-8.850776553153992E-001,-4.442881345748901E-001,
8.908000000000000E+008,3.331599757075310E-002,6.057638674974442E-002,-8.857920169830322E-001,-4.124467968940735E-001,3.331599757075310E-002,6.057638674974442E-002,-8.857920169830322E-001,-4.124467968940735E-001,
8.991666666666668E+008,3.745764493942261E-002,5.333708971738815E-002,-9.004509449005127E-001,-3.848523795604706E-001,3.745764493942261E-002,5.333708971738815E-002,-9.004509449005127E-001,-3.848523795604706E-001,
9.075333333333334E+008,3.840594366192818E-002,4.623387753963471E-002,-9.306871294975281E-001,-3.664822578430176E-001,3.840594366192818E-002,4.623387753963471E-002,-9.306871294975281E-001,-3.664822578430176E-001,
9.159000000000000E+008,3.600513935089111E-002,4.302576556801796E-002,-9.370142817497253E-001,-3.378607332706451E-001,3.600513935089111E-002,4.302576556801796E-002,-9.370142817497253E-001,-3.378607332706451E-001,
9.242666666666668E+008,3.113965690135956E-002,3.938807919621468E-002,-9.423288702964783E-001,-3.238697946071625E-001,3.113965690135956E-002,3.938807919621468E-002,-9.423288702964783E-001,-3.238697946071625E-001,
9.326333333333334E+008,2.394557185471058E-002,3.992855921387672E-002,-9.633839726448059E-001,-3.007497191429138E-001,2.394557185471058E-002,3.992855921387672E-002,-9.633839726448059E-001,-3.007497191429138E-001,
9.410000000000000E+008,2.078725956380367E-002,4.399685561656952E-002,-9.562258720397949E-001,-2.667333781719208E-001,2.078725956380367E-002,4.399685561656952E-002,-9.562258720397949E-001,-2.667333781719208E-001,
9.493666666666668E+008,2.035708166658878E-002,4.980582371354103E-002,-9.552083015441895E-001,-2.489075213670731E-001,2.035708166658878E-002,4.980582371354103E-002,-9.552083015441895E-001,-2.489075213670731E-001,
9.577333333333334E+008,2.352801337838173E-002,5.770408362150192E-002,-9.710714221000671E-001,-2.249832004308701E-001,2.352801337838173E-002,5.770408362150192E-002,-9.710714221000671E-001,-2.249832004308701E-001,
9.661000000000000E+008,3.308279439806938E-002,6.359943747520447E-002,-9.688982367515564E-001,-2.008602917194367E-001,3.308279439806938E-002,6.359943747520447E-002,-9.688982367515564E-001,-2.008602917194367E-001,
9.744666666666668E+008,4.182187467813492E-002,6.298989802598953E-002,-9.738274812698364E-001,-1.771871298551559E-001,4.182187467813492E-002,6.298989802598953E-002,-9.738274812698364E-001,-1.771871298551559E-001,
9.828333333333334E+008,5.581598728895187E-002,5.910715460777283E-002,-9.773433208465576E-001,-1.560572832822800E-001,5.581598728895187E-002,5.910715460777283E-002,-9.773433208465576E-001,-1.560572832822800E-001,
9.912000000000000E+008,6.379923224449158E-002,5.183961614966393E-002,-9.767514467239380E-001,-1.288805902004242E-001,6.379923224449158E-002,5.183961614966393E-002,-9.767514467239380E-001,-1.288805902004242E-001,
9.995666666666668E+008,7.016450166702271E-002,4.186907410621643E-002,-9.923432469367981E-001,-9.099936485290527E-002,7.016450166702271E-002,4.186907410621643E-002,-9.923432469367981E-001,-9.099936485290527E-002,
1.007933333333333E+009,7.029245793819428E-002,3.193849325180054E-002,-9.912523031234741E-001,-7.719676941633225E-002,7.029245793819428E-002,3.193849325180054E-002,-9.912523031234741E-001,-7.719676941633225E-002,
1.016300000000000E+009,6.452559679746628E-002,2.535651437938213E-002,-9.927077293395996E-001,-5.076506361365318E-002,6.452559679746628E-002,2.535651437938213E-002,-9.927077293395996E-001,-5.076506361365318E-002,
1.024666666666667E+009,5.743083730340004E-002,1.881266199052334E-002,-9.929958581924439E-001,-1.818286068737507E-002,5.743083730340004E-002,1.881266199052334E-002,-9.929958581924439E-001,-1.818286068737507E-002,
1.033033333333333E+009,5.063144117593765E-002,2.101728878915310E-002,-9.925887584686279E-001,6.784947472624481E-004,5.063144117593765E-002,2.101728878915310E-002,-9.925887584686279E-001,6.784947472624481E-004,
1.041400000000000E+009,4.471767321228981E-002,2.628886885941029E-002,-9.796476364135742E-001,3.882126510143280E-002,4.471767321228981E-002,2.628886885941029E-002,-9.796476364135742E-001,3.882126510143280E-002,
1.049766666666667E+009,4.446808248758316E-002,3.362383693456650E-002,-9.915292263031006E-001,5.885703489184380E-002,4.446808248758316E-002,3.362383693456650E-002,-9.915292263031006E-001,5.885703489184380E-002,
1.058133333333333E+009,5.041883140802383E-002,3.926429897546768E-002,-9.852115511894226E-001,7.756252586841583E-002,5.041883140802383E-002,3.926429897546768E-002,-9.852115511894226E-001,7.756252586841583E-002,
1.066500000000000E+009,6.178473681211472E-002,4.187832400202751E-002,-9.920114278793335E-001,1.166317164897919E-001,6.178473681211472E-002,4.187832400202751E-002,-9.920114278793335E-001,1.166317164897919E-001,
1.074866666666667E+009,7.256348431110382E-002,3.892409056425095E-002,-9.742619395256043E-001,1.340490430593491E-001,7.256348431110382E-002,3.892409056425095E-002,-9.742619395256043E-001,1.340490430593491E-001,
1.083233333333334E+009,8.371888101100922E-002,2.643901854753494E-002,-9.725086092948914E-001,1.550524532794952E-001,8.371888101100922E-002,2.643901854753494E-002,-9.725086092948914E-001,1.550524532794952E-001,
1.091600000000000E+009,8.998284488916397E-002,1.526181399822235E-002,-9.636780023574829E-001,1.764763593673706E-001,8.998284488916397E-002,1.526181399822235E-002,-9.636780023574829E-001,1.764763593673706E-001,
1.099966666666667E+009,9.137541055679321E-002,-1.541959791211411E-004,-9.671480655670166E-001,2.147516459226608E-001,9.137541055679321E-002,-1.541959791211411E-004,-9.671480655670166E-001,2.147516459226608E-001,
1.108333333333334E+009,8.220832049846649E-002,-1.140249520540237E-002,-9.457682967185974E-001,2.184247970581055E-001,8.220832049846649E-002,-1.140249520540237E-002,-9.457682967185974E-001,2.184247970581055E-001,
1.116700000000000E+009,6.826303154230118E-002,-1.258039474487305E-002,-9.461169838905335E-001,2.625954449176788E-001,6.826303154230118E-002,-1.258039474487305E-002,-9.461169838905335E-001,2.625954449176788E-001,
1.125066666666667E+009,5.585585907101631E-002,-1.255156658589840E-002,-9.507672786712647E-001,2.727288305759430E-001,5.585585907101631E-002,-1.255156658589840E-002,-9.507672786712647E-001,2.727288305759430E-001,
1.133433333333334E+009,4.665156081318855E-002,-1.259967568330467E-003,-9.512838721275330E-001,2.980767786502838E-001,4.665156081318855E-002,-1.259967568330467E-003,-9.512838721275330E-001,2.980767786502838E-001,
1.141800000000000E+009,4.553294926881790E-002,9.533542208373547E-003,-9.238520860671997E-001,3.196527063846588E-001,4.553294926881790E-002,9.533542208373547E-003,-9.238520860671997E-001,3.196527063846588E-001,
1.150166666666667E+009,5.207395553588867E-002,2.298972383141518E-002,-9.069684147834778E-001,3.508308827877045E-001,5.207395553588867E-002,2.298972383141518E-002,-9.069684147834778E-001,3.508308827877045E-001,
1.158533333333334E+009,6.621172279119492E-002,2.881637774407864E-002,-9.091644287109375E-001,3.753575086593628E-001,6.621172279119492E-002,2.881637774407864E-002,-9.091644287109375E-001,3.753575086593628E-001,
1.166900000000000E+009,8.522103726863861E-002,2.588034048676491E-002,-8.993113040924072E-001,4.089054465293884E-001,8.522103726863861E-002,2.588034048676491E-002,-8.993113040924072E-001,4.089054465293884E-001,
1.175266666666667E+009,9.964928776025772E-002,1.197079848498106E-002,-8.885354399681091E-001,4.145609736442566E-001,9.964928776025772E-002,1.197079848498106E-002,-8.885354399681091E-001,4.145609736442566E-001,
1.183633333333334E+009,1.103420630097389E-001,-6.191838998347521E-003,-8.763559460639954E-001,4.517327547073364E-001,1.103420630097389E-001,-6.191838998347521E-003,-8.763559460639954E-001,4.517327547073364E-001,
1.192000000000000E+009,1.104461252689362E-001,-2.848695032298565E-002,-8.666408658027649E-001,4.581937789916992E-001,1.104461252689362E-001,-2.848695032298565E-002,-8.666408658027649E-001,4.581937789916992E-001,
1.200366666666667E+009,9.886276721954346E-002,-4.510135576128960E-002,-8.579850196838379E-001,4.856241643428803E-001,9.886276721954346E-002,-4.510135576128960E-002,-8.579850196838379E-001,4.856241643428803E-001,
1.208733333333334E+009,8.287172019481659E-002,-5.561122298240662E-002,-8.525450825691223E-001,5.020334720611572E-001,8.287172019481659E-002,-5.561122298240662E-002,-8.525450825691223E-001,5.020334720611572E-001,
1.217100000000000E+009,6.417310982942581E-002,-5.313647910952568E-002,-8.381066918373108E-001,5.224793553352356E-001,6.417310982942581E-002,-5.313647910952568E-002,-8.381066918373108E-001,5.224793553352356E-001,
1.225466666666667E+009,5.220226570963860E-002,-4.551200568675995E-002,-8.139931559562683E-001,5.503706336021423E-001,5.220226570963860E-002,-4.551200568675995E-002,-8.139931559562683E-001,5.503706336021423E-001,
1.233833333333334E+009,4.509580880403519E-002,-2.963387221097946E-002,-7.978454828262329E-001,5.692042112350464E-001,4.509580880403519E-002,-2.963387221097946E-002,-7.978454828262329E-001,5.692042112350464E-001,
1.242200000000000E+009,4.849694296717644E-002,-1.412729453295469E-002,-7.838021516799927E-001,5.827468037605286E-001,4.849694296717644E-002,-1.412729453295469E-002,-7.838021516799927E-001,5.827468037605286E-001,
1.250566666666667E+009,6.279249489307404E-002,-6.237750407308340E-003,-7.566936612129211E-001,6.116800904273987E-001,6.279249489307404E-002,-6.237750407308340E-003,-7.566936612129211E-001,6.116800904273987E-001,
1.258933333333334E+009,7.974421232938767E-002,-7.851397618651390E-003,-7.658126354217529E-001,6.314823627471924E-001,7.974421232938767E-002,-7.851397618651390E-003,-7.658126354217529E-001,6.314823627471924E-001,
1.267300000000000E+009,9.581812471151352E-002,-2.170012891292572E-002,-7.440426945686340E-001,6.440548300743103E-001,9.581812471151352E-002,-2.170012891292572E-002,-7.440426945686340E-001,6.440548300743103E-001,
1.275666666666667E+009,1.046798527240753E-001,-4.231372475624085E-002,-7.100178003311157E-001,6.669971346855164E-001,1.046798527240753E-001,-4.231372475624085E-002,-7.100178003311157E-001,6.669971346855164E-001,
1.284033333333334E+009,1.021397039294243E-001,-6.622572243213654E-002,-7.032141685485840E-001,6.856419444084168E-001,1.021397039294243E-001,-6.622572243213654E-002,-7.032141685485840E-001,6.856419444084168E-001,
1.292400000000000E+009,8.928307145833969E-002,-8.594249933958054E-002,-6.915153861045837E-001,6.997069716453552E-001,8.928307145833969E-002,-8.594249933958054E-002,-6.915153861045837E-001,6.997069716453552E-001,
1.300766666666667E+009,6.953338533639908E-002,-9.513555467128754E-002,-6.688753366470337E-001,7.151485681533814E-001,6.953338533639908E-002,-9.513555467128754E-002,-6.688753366470337E-001,7.151485681533814E-001,
1.309133333333334E+009,4.648850485682488E-002,-9.440290182828903E-002,-6.580687761306763E-001,7.319151163101196E-001,4.648850485682488E-002,-9.440290182828903E-002,-6.580687761306763E-001,7.319151163101196E-001,
1.317500000000000E+009,3.236728161573410E-002,-8.347588777542114E-002,-6.340119838714600E-001,7.470035552978516E-001,3.236728161573410E-002,-8.347588777542114E-002,-6.340119838714600E-001,7.470035552978516E-001,
1.325866666666667E+009,2.541855163872242E-002,-6.481691449880600E-002,-6.191532015800476E-001,7.627128362655640E-001,2.541855163872242E-002,-6.481691449880600E-002,-6.191532015800476E-001,7.627128362655640E-001,
1.334233333333334E+009,3.066985495388508E-002,-4.848496615886688E-002,-5.911542773246765E-001,7.842137813568115E-001,3.066985495388508E-002,-4.848496615886688E-002,-5.911542773246765E-001,7.842137813568115E-001,
1.342600000000000E+009,4.298404231667519E-002,-4.112897440791130E-002,-5.723071694374085E-001,8.034307956695557E-001,4.298404231667519E-002,-4.112897440791130E-002,-5.723071694374085E-001,8.034307956695557E-001,
1.350966666666667E+009,5.939322710037231E-002,-4.424985870718956E-002,-5.406605005264282E-001,8.278688192367554E-001,5.939322710037231E-002,-4.424985870718956E-002,-5.406605005264282E-001,8.278688192367554E-001,
1.359333333333334E+009,7.351773977279663E-002,-5.765840783715248E-002,-5.293394327163696E-001,8.292878270149231E-001,7.351773977279663E-002,-5.765840783715248E-002,-5.293394327163696E-001,8.292878270149231E-001,
1.367700000000000E+009,7.356976717710495E-002,-8.007228374481201E-002,-5.110780000686646E-001,8.370684981346130E-001,7.356976717710495E-002,-8.007228374481201E-002,-5.110780000686646E-001,8.370684981346130E-001,
1.376066666666667E+009,6.649047136306763E-002,-1.004237309098244E-001,-4.954777359962463E-001,8.525460958480835E-001,6.649047136306763E-002,-1.004237309098244E-001,-4.954777359962463E-001,8.525460958480835E-001,
1.384433333333334E+009,4.723237827420235E-002,-1.186611130833626E-001,-4.704446494579315E-001,8.730102181434631E-001,4.723237827420235E-002,-1.186611130833626E-001,-4.704446494579315E-001,8.730102181434631E-001,
1.392800000000000E+009,2.352963574230671E-002,-1.226822435855866E-001,-4.570450186729431E-001,8.672255277633667E-001,2.352963574230671E-002,-1.226822435855866E-001,-4.570450186729431E-001,8.672255277633667E-001,
1.401166666666667E+009,1.554219634272158E-003,-1.148738712072372E-001,-4.347775578498840E-001,8.862719535827637E-001,1.554219634272158E-003,-1.148738712072372E-001,-4.347775578498840E-001,8.862719535827637E-001,
1.409533333333334E+009,-1.380917150527239E-002,-9.835736453533173E-002,-4.046242237091065E-001,8.983805775642395E-001,-1.380917150527239E-002,-9.835736453533173E-002,-4.046242237091065E-001,8.983805775642395E-001,
1.417900000000000E+009,-1.728427410125732E-002,-7.428092509508133E-002,-3.917864263057709E-001,8.944550752639771E-001,-1.728427410125732E-002,-7.428092509508133E-002,-3.917864263057709E-001,8.944550752639771E-001,
1.426266666666667E+009,-7.774107623845339E-003,-5.773954465985298E-002,-3.594921827316284E-001,9.200776219367981E-001,-7.774107623845339E-003,-5.773954465985298E-002,-3.594921827316284E-001,9.200776219367981E-001,
1.434633333333334E+009,9.241506457328796E-003,-4.725497215986252E-002,-3.260450661182404E-001,9.304504990577698E-001,9.241506457328796E-003,-4.725497215986252E-002,-3.260450661182404E-001,9.304504990577698E-001,
1.443000000000000E+009,2.705287747085095E-002,-4.950136318802834E-002,-3.084045350551605E-001,9.348044395446777E-001,2.705287747085095E-002,-4.950136318802834E-002,-3.084045350551605E-001,9.348044395446777E-001,
1.451366666666667E+009,4.085570946335793E-002,-6.270869076251984E-002,-2.761357426643372E-001,9.377475976943970E-001,4.085570946335793E-002,-6.270869076251984E-002,-2.761357426643372E-001,9.377475976943970E-001,
1.459733333333334E+009,4.552652314305306E-002,-8.598909527063370E-002,-2.590047717094421E-001,9.408089518547058E-001,4.552652314305306E-002,-8.598909527063370E-002,-2.590047717094421E-001,9.408089518547058E-001,
