% Version 1.00
%
%freq[Hz],re:Trc1_S11,im:Trc1_S11,re:Trc2_S21,im:Trc2_S21,re:Trc3_S11,im:Trc3_S11,re:Trc4_S21,im:Trc4_S21,
6.900000000000000E+008,-3.215350210666657E-002,5.179258808493614E-002,-4.968936741352081E-001,-8.505955338478088E-001,-3.215350210666657E-002,5.179258808493614E-002,-4.968936741352081E-001,-8.505955338478088E-001,
6.983666666666666E+008,-2.192728035151959E-002,5.322908237576485E-002,-5.198757648468018E-001,-8.419420123100281E-001,-2.192728035151959E-002,5.322908237576485E-002,-5.198757648468018E-001,-8.419420123100281E-001,
7.067333333333334E+008,-1.467325072735548E-002,4.861085861921310E-002,-5.646429657936096E-001,-7.802861928939819E-001,-1.467325072735548E-002,4.861085861921310E-002,-5.646429657936096E-001,-7.802861928939819E-001,
7.151000000000000E+008,-1.287627406418324E-002,4.134055227041245E-002,-5.835255980491638E-001,-7.932916879653931E-001,-1.287627406418324E-002,4.134055227041245E-002,-5.835255980491638E-001,-7.932916879653931E-001,
7.234666666666666E+008,-1.510940771549940E-002,3.606079146265984E-002,-5.955010056495667E-001,-7.815921306610107E-001,-1.510940771549940E-002,3.606079146265984E-002,-5.955010056495667E-001,-7.815921306610107E-001,
7.318333333333334E+008,-2.113686688244343E-002,3.369526937603951E-002,-6.105950474739075E-001,-7.797539234161377E-001,-2.113686688244343E-002,3.369526937603951E-002,-6.105950474739075E-001,-7.797539234161377E-001,
7.402000000000000E+008,-2.708832547068596E-002,3.391693904995918E-002,-6.552678942680359E-001,-7.622808814048767E-001,-2.708832547068596E-002,3.391693904995918E-002,-6.552678942680359E-001,-7.622808814048767E-001,
7.485666666666666E+008,-3.351950645446777E-002,4.002649337053299E-002,-6.539906859397888E-001,-7.582951188087463E-001,-3.351950645446777E-002,4.002649337053299E-002,-6.539906859397888E-001,-7.582951188087463E-001,
7.569333333333334E+008,-3.446340933442116E-002,4.807233437895775E-002,-6.618055701255798E-001,-7.374455928802490E-001,-3.446340933442116E-002,4.807233437895775E-002,-6.618055701255798E-001,-7.374455928802490E-001,
7.653000000000000E+008,-2.919647656381130E-002,5.606368184089661E-002,-6.795013546943665E-001,-7.175576090812683E-001,-2.919647656381130E-002,5.606368184089661E-002,-6.795013546943665E-001,-7.175576090812683E-001,
7.736666666666666E+008,-2.197363972663879E-002,6.271962076425552E-002,-7.124012112617493E-001,-6.918606758117676E-001,-2.197363972663879E-002,6.271962076425552E-002,-7.124012112617493E-001,-6.918606758117676E-001,
7.820333333333334E+008,-1.219648960977793E-002,6.596674770116806E-002,-7.237979769706726E-001,-6.788170337677002E-001,-1.219648960977793E-002,6.596674770116806E-002,-7.237979769706726E-001,-6.788170337677002E-001,
7.904000000000000E+008,-1.030234387144446E-003,6.526076048612595E-002,-7.279919981956482E-001,-6.573727130889893E-001,-1.030234387144446E-003,6.526076048612595E-002,-7.279919981956482E-001,-6.573727130889893E-001,
7.987666666666666E+008,4.625890403985977E-003,5.994495004415512E-002,-7.623245716094971E-001,-6.368035078048706E-001,4.625890403985977E-003,5.994495004415512E-002,-7.623245716094971E-001,-6.368035078048706E-001,
8.071333333333334E+008,8.567770011723042E-003,5.481705814599991E-002,-7.675129175186157E-001,-6.253511309623718E-001,8.567770011723042E-003,5.481705814599991E-002,-7.675129175186157E-001,-6.253511309623718E-001,
8.155000000000000E+008,3.587285522371531E-003,4.874379187822342E-002,-7.907093167304993E-001,-6.037387847900391E-001,3.587285522371531E-003,4.874379187822342E-002,-7.907093167304993E-001,-6.037387847900391E-001,
8.238666666666666E+008,1.094028120860457E-003,4.474934935569763E-002,-7.921277284622192E-001,-5.744414329528809E-001,1.094028120860457E-003,4.474934935569763E-002,-7.921277284622192E-001,-5.744414329528809E-001,
8.322333333333334E+008,-5.500700324773789E-003,4.479805380105972E-002,-8.135566711425781E-001,-5.549135804176331E-001,-5.500700324773789E-003,4.479805380105972E-002,-8.135566711425781E-001,-5.549135804176331E-001,
8.406000000000000E+008,-1.059471257030964E-002,4.857123643159866E-002,-8.244729638099670E-001,-5.422308444976807E-001,-1.059471257030964E-002,4.857123643159866E-002,-8.244729638099670E-001,-5.422308444976807E-001,
8.489666666666668E+008,-1.363309845328331E-002,5.587413161993027E-002,-8.350140452384949E-001,-5.267976522445679E-001,-1.363309845328331E-002,5.587413161993027E-002,-8.350140452384949E-001,-5.267976522445679E-001,
8.573333333333334E+008,-1.116852555423975E-002,6.368171423673630E-002,-8.518952727317810E-001,-4.862141907215118E-001,-1.116852555423975E-002,6.368171423673630E-002,-8.518952727317810E-001,-4.862141907215118E-001,
8.657000000000000E+008,-1.608995022252202E-003,7.083498686552048E-002,-8.682631850242615E-001,-4.664368331432343E-001,-1.608995022252202E-003,7.083498686552048E-002,-8.682631850242615E-001,-4.664368331432343E-001,
8.740666666666668E+008,7.044331636279821E-003,7.348505407571793E-002,-8.664793968200684E-001,-4.541780948638916E-001,7.044331636279821E-003,7.348505407571793E-002,-8.664793968200684E-001,-4.541780948638916E-001,
8.824333333333334E+008,1.781757362186909E-002,7.280290126800537E-002,-8.835030794143677E-001,-4.391753077507019E-001,1.781757362186909E-002,7.280290126800537E-002,-8.835030794143677E-001,-4.391753077507019E-001,
8.908000000000000E+008,2.773594111204147E-002,6.776999682188034E-002,-8.838710784912109E-001,-4.078465700149536E-001,2.773594111204147E-002,6.776999682188034E-002,-8.838710784912109E-001,-4.078465700149536E-001,
8.991666666666668E+008,3.204199671745300E-002,6.064773350954056E-002,-8.990240693092346E-001,-3.804624676704407E-001,3.204199671745300E-002,6.064773350954056E-002,-8.990240693092346E-001,-3.804624676704407E-001,
9.075333333333334E+008,3.307177126407623E-002,5.383653193712235E-002,-9.287760853767395E-001,-3.616318404674530E-001,3.307177126407623E-002,5.383653193712235E-002,-9.287760853767395E-001,-3.616318404674530E-001,
9.159000000000000E+008,3.074920177459717E-002,5.092518031597138E-002,-9.350054264068604E-001,-3.336421549320221E-001,3.074920177459717E-002,5.092518031597138E-002,-9.350054264068604E-001,-3.336421549320221E-001,
9.242666666666668E+008,2.591671794652939E-002,4.750741273164749E-002,-9.402428269386292E-001,-3.194603621959686E-001,2.591671794652939E-002,4.750741273164749E-002,-9.402428269386292E-001,-3.194603621959686E-001,
9.326333333333334E+008,1.878505013883114E-002,4.830326884984970E-002,-9.614120721817017E-001,-2.954991161823273E-001,1.878505013883114E-002,4.830326884984970E-002,-9.614120721817017E-001,-2.954991161823273E-001,
9.410000000000000E+008,1.572398655116558E-002,5.264304950833321E-002,-9.543320536613464E-001,-2.619233727455139E-001,1.572398655116558E-002,5.264304950833321E-002,-9.543320536613464E-001,-2.619233727455139E-001,
9.493666666666668E+008,1.555818412452936E-002,5.881597101688385E-002,-9.523910880088806E-001,-2.439958900213242E-001,1.555818412452936E-002,5.881597101688385E-002,-9.523910880088806E-001,-2.439958900213242E-001,
9.577333333333334E+008,1.906559802591801E-002,6.683199107646942E-002,-9.687479138374329E-001,-2.206188440322876E-001,1.906559802591801E-002,6.683199107646942E-002,-9.687479138374329E-001,-2.206188440322876E-001,
9.661000000000000E+008,2.894131280481815E-002,7.312741130590439E-002,-9.665810465812683E-001,-1.960767954587936E-001,2.894131280481815E-002,7.312741130590439E-002,-9.665810465812683E-001,-1.960767954587936E-001,
9.744666666666668E+008,3.790098056197166E-002,7.248182594776154E-002,-9.715018272399902E-001,-1.716631948947907E-001,3.790098056197166E-002,7.248182594776154E-002,-9.715018272399902E-001,-1.716631948947907E-001,
9.828333333333334E+008,5.193807557225227E-002,6.875013560056686E-002,-9.738446474075317E-001,-1.512168943881989E-001,5.193807557225227E-002,6.875013560056686E-002,-9.738446474075317E-001,-1.512168943881989E-001,
9.912000000000000E+008,6.001434847712517E-002,6.163270026445389E-002,-9.736475944519043E-001,-1.242396757006645E-001,6.001434847712517E-002,6.163270026445389E-002,-9.736475944519043E-001,-1.242396757006645E-001,
9.995666666666668E+008,6.669520586729050E-002,5.187596380710602E-002,-9.892562627792358E-001,-8.633215725421906E-002,6.669520586729050E-002,5.187596380710602E-002,-9.892562627792358E-001,-8.633215725421906E-002,
1.007933333333333E+009,6.713646650314331E-002,4.233574867248535E-002,-9.869285821914673E-001,-7.164364308118820E-002,6.713646650314331E-002,4.233574867248535E-002,-9.869285821914673E-001,-7.164364308118820E-002,
1.016300000000000E+009,6.173092871904373E-002,3.622679784893990E-002,-9.886414408683777E-001,-4.548519849777222E-002,6.173092871904373E-002,3.622679784893990E-002,-9.886414408683777E-001,-4.548519849777222E-002,
1.024666666666667E+009,5.494297668337822E-002,3.003005683422089E-002,-9.883589744567871E-001,-1.271875202655792E-002,5.494297668337822E-002,3.003005683422089E-002,-9.883589744567871E-001,-1.271875202655792E-002,
1.033033333333333E+009,4.856288805603981E-002,3.249533846974373E-002,-9.876555800437927E-001,6.227836478501558E-003,4.856288805603981E-002,3.249533846974373E-002,-9.876555800437927E-001,6.227836478501558E-003,
1.041400000000000E+009,4.311332851648331E-002,3.786620125174522E-002,-9.729550480842590E-001,4.432341083884239E-002,4.311332851648331E-002,3.786620125174522E-002,-9.729550480842590E-001,4.432341083884239E-002,
1.049766666666667E+009,4.320690780878067E-002,4.528829455375671E-002,-9.852808713912964E-001,6.329749524593353E-002,4.320690780878067E-002,4.528829455375671E-002,-9.852808713912964E-001,6.329749524593353E-002,
1.058133333333333E+009,4.941020905971527E-002,5.089360103011131E-002,-9.790152311325073E-001,8.190822601318359E-002,4.941020905971527E-002,5.089360103011131E-002,-9.790152311325073E-001,8.190822601318359E-002,
1.066500000000000E+009,6.111180409789085E-002,5.377389863133431E-002,-9.856109619140625E-001,1.207210719585419E-001,6.111180409789085E-002,5.377389863133431E-002,-9.856109619140625E-001,1.207210719585419E-001,
1.074866666666667E+009,7.170654088258743E-002,5.083442851901054E-002,-9.677292704582214E-001,1.372090131044388E-001,7.170654088258743E-002,5.083442851901054E-002,-9.677292704582214E-001,1.372090131044388E-001,
1.083233333333334E+009,8.296282589435577E-002,3.850969672203064E-002,-9.660779237747192E-001,1.580489426851273E-001,8.296282589435577E-002,3.850969672203064E-002,-9.660779237747192E-001,1.580489426851273E-001,
1.091600000000000E+009,8.930253237485886E-002,2.765550650656223E-002,-9.571449160575867E-001,1.798209547996521E-001,8.930253237485886E-002,2.765550650656223E-002,-9.571449160575867E-001,1.798209547996521E-001,
1.099966666666667E+009,9.116628766059876E-002,1.278291083872318E-002,-9.603026509284973E-001,2.175651043653488E-001,9.116628766059876E-002,1.278291083872318E-002,-9.603026509284973E-001,2.175651043653488E-001,
1.108333333333334E+009,8.259041607379913E-002,1.919110654853284E-003,-9.394317269325256E-001,2.211090624332428E-001,8.259041607379913E-002,1.919110654853284E-003,-9.394317269325256E-001,2.211090624332428E-001,
1.116700000000000E+009,6.940575689077377E-002,6.081284373067319E-004,-9.392726421356201E-001,2.656904160976410E-001,6.940575689077377E-002,6.081284373067319E-004,-9.392726421356201E-001,2.656904160976410E-001,
1.125066666666667E+009,5.751490220427513E-002,1.009782426990569E-003,-9.439870119094849E-001,2.758799493312836E-001,5.751490220427513E-002,1.009782426990569E-003,-9.439870119094849E-001,2.758799493312836E-001,
1.133433333333334E+009,4.891909658908844E-002,1.253932062536478E-002,-9.444648027420044E-001,3.009004890918732E-001,4.891909658908844E-002,1.253932062536478E-002,-9.444648027420044E-001,3.009004890918732E-001,
1.141800000000000E+009,4.870636761188507E-002,2.305663004517555E-002,-9.165947437286377E-001,3.223886787891388E-001,4.870636761188507E-002,2.305663004517555E-002,-9.165947437286377E-001,3.223886787891388E-001,
1.150166666666667E+009,5.568891391158104E-002,3.619751334190369E-002,-8.996922373771668E-001,3.535865247249603E-001,5.568891391158104E-002,3.619751334190369E-002,-8.996922373771668E-001,3.535865247249603E-001,
1.158533333333334E+009,6.988516449928284E-002,4.181488975882530E-002,-9.014346003532410E-001,3.781472742557526E-001,6.988516449928284E-002,4.181488975882530E-002,-9.014346003532410E-001,3.781472742557526E-001,
1.166900000000000E+009,8.908040821552277E-002,3.896186500787735E-002,-8.912853002548218E-001,4.109751880168915E-001,8.908040821552277E-002,3.896186500787735E-002,-8.912853002548218E-001,4.109751880168915E-001,
1.175266666666667E+009,1.034237816929817E-001,2.519828639924526E-002,-8.807804584503174E-001,4.154403507709503E-001,1.034237816929817E-001,2.519828639924526E-002,-8.807804584503174E-001,4.154403507709503E-001,
1.183633333333334E+009,1.142648607492447E-001,7.379681803286076E-003,-8.693454861640930E-001,4.532661736011505E-001,1.142648607492447E-001,7.379681803286076E-003,-8.693454861640930E-001,4.532661736011505E-001,
1.192000000000000E+009,1.148093417286873E-001,-1.462208572775126E-002,-8.589377999305725E-001,4.597420990467072E-001,1.148093417286873E-001,-1.462208572775126E-002,-8.589377999305725E-001,4.597420990467072E-001,
1.200366666666667E+009,1.041635423898697E-001,-3.106062673032284E-002,-8.504151105880737E-001,4.865074455738068E-001,1.041635423898697E-001,-3.106062673032284E-002,-8.504151105880737E-001,4.865074455738068E-001,
1.208733333333334E+009,8.908279985189438E-002,-4.143018275499344E-002,-8.451436161994934E-001,5.033818483352661E-001,8.908279985189438E-002,-4.143018275499344E-002,-8.451436161994934E-001,5.033818483352661E-001,
1.217100000000000E+009,7.139424979686737E-002,-3.910604491829872E-002,-8.305923342704773E-001,5.243291854858398E-001,7.139424979686737E-002,-3.910604491829872E-002,-8.305923342704773E-001,5.243291854858398E-001,
1.225466666666667E+009,6.023560091853142E-002,-3.199461847543716E-002,-8.058347702026367E-001,5.512573122978210E-001,6.023560091853142E-002,-3.199461847543716E-002,-8.058347702026367E-001,5.512573122978210E-001,
1.233833333333334E+009,5.341629311442375E-002,-1.660087704658508E-002,-7.899791002273560E-001,5.698826313018799E-001,5.341629311442375E-002,-1.660087704658508E-002,-7.899791002273560E-001,5.698826313018799E-001,
1.242200000000000E+009,5.713366717100143E-002,-1.406495692208409E-003,-7.756929993629456E-001,5.833808779716492E-001,5.713366717100143E-002,-1.406495692208409E-003,-7.756929993629456E-001,5.833808779716492E-001,
1.250566666666667E+009,7.161767780780792E-002,6.186652462929487E-003,-7.482873201370239E-001,6.113824844360352E-001,7.161767780780792E-002,6.186652462929487E-003,-7.482873201370239E-001,6.113824844360352E-001,
1.258933333333334E+009,8.867140859365463E-002,4.344559740275145E-003,-7.577109932899475E-001,6.310351490974426E-001,8.867140859365463E-002,4.344559740275145E-003,-7.577109932899475E-001,6.310351490974426E-001,
1.267300000000000E+009,1.049798056483269E-001,-9.402730502188206E-003,-7.365028262138367E-001,6.433148384094238E-001,1.049798056483269E-001,-9.402730502188206E-003,-7.365028262138367E-001,6.433148384094238E-001,
1.275666666666667E+009,1.137761622667313E-001,-2.952927537262440E-002,-7.027201056480408E-001,6.659336686134338E-001,1.137761622667313E-001,-2.952927537262440E-002,-7.027201056480408E-001,6.659336686134338E-001,
1.284033333333334E+009,1.117377728223801E-001,-5.326823517680168E-002,-6.952819824218750E-001,6.846380829811096E-001,1.117377728223801E-001,-5.326823517680168E-002,-6.952819824218750E-001,6.846380829811096E-001,
1.292400000000000E+009,9.991966187953949E-002,-7.301003485918045E-002,-6.842331290245056E-001,6.991045475006104E-001,9.991966187953949E-002,-7.301003485918045E-002,-6.842331290245056E-001,6.991045475006104E-001,
1.300766666666667E+009,8.102846890687943E-002,-8.239626884460449E-002,-6.613876223564148E-001,7.147085666656494E-001,8.102846890687943E-002,-8.239626884460449E-002,-6.613876223564148E-001,7.147085666656494E-001,
1.309133333333334E+009,5.907300859689713E-002,-8.212834596633911E-002,-6.502083539962769E-001,7.315974831581116E-001,5.907300859689713E-002,-8.212834596633911E-002,-6.502083539962769E-001,7.315974831581116E-001,
1.317500000000000E+009,4.575141146779060E-002,-7.153835147619247E-002,-6.258742809295654E-001,7.464389801025391E-001,4.575141146779060E-002,-7.153835147619247E-002,-6.258742809295654E-001,7.464389801025391E-001,
1.325866666666667E+009,3.915386646986008E-002,-5.360274016857147E-002,-6.107632517814636E-001,7.621795535087585E-001,3.915386646986008E-002,-5.360274016857147E-002,-6.107632517814636E-001,7.621795535087585E-001,
1.334233333333334E+009,4.463854059576988E-002,-3.786423057317734E-002,-5.823741555213928E-001,7.833645343780518E-001,4.463854059576988E-002,-3.786423057317734E-002,-5.823741555213928E-001,7.833645343780518E-001,
1.342600000000000E+009,5.706461146473885E-002,-3.098091296851635E-002,-5.628858804702759E-001,8.019533157348633E-001,5.706461146473885E-002,-3.098091296851635E-002,-5.628858804702759E-001,8.019533157348633E-001,
1.350966666666667E+009,7.370973378419876E-002,-3.442200645804405E-002,-5.311421751976013E-001,8.250607848167419E-001,7.370973378419876E-002,-3.442200645804405E-002,-5.311421751976013E-001,8.250607848167419E-001,
1.359333333333334E+009,8.806442469358444E-002,-4.762681573629379E-002,-5.198079347610474E-001,8.258901238441467E-001,8.806442469358444E-002,-4.762681573629379E-002,-5.198079347610474E-001,8.258901238441467E-001,
1.367700000000000E+009,8.833911269903183E-002,-7.008824497461319E-002,-5.026000142097473E-001,8.339590430259705E-001,8.833911269903183E-002,-7.008824497461319E-002,-5.026000142097473E-001,8.339590430259705E-001,
1.376066666666667E+009,8.177991956472397E-002,-9.040753543376923E-002,-4.866819381713867E-001,8.493386507034302E-001,8.177991956472397E-002,-9.040753543376923E-002,-4.866819381713867E-001,8.493386507034302E-001,
1.384433333333334E+009,6.328359246253967E-002,-1.091156080365181E-001,-4.618035554885864E-001,8.700139522552490E-001,6.328359246253967E-002,-1.091156080365181E-001,-4.618035554885864E-001,8.700139522552490E-001,
1.392800000000000E+009,4.043177142739296E-002,-1.138943061232567E-001,-4.488694667816162E-001,8.648470640182495E-001,4.043177142739296E-002,-1.138943061232567E-001,-4.488694667816162E-001,8.648470640182495E-001,
1.401166666666667E+009,1.937943510711193E-002,-1.066161319613457E-001,-4.254590570926666E-001,8.836308121681213E-001,1.937943510711193E-002,-1.066161319613457E-001,-4.254590570926666E-001,8.836308121681213E-001,
1.409533333333334E+009,4.648715257644653E-003,-9.095437079668045E-002,-3.952077627182007E-001,8.948799967765808E-001,4.648715257644653E-003,-9.095437079668045E-002,-3.952077627182007E-001,8.948799967765808E-001,
1.417900000000000E+009,1.635424094274640E-003,-6.777391582727432E-002,-3.825549781322479E-001,8.903291821479797E-001,1.635424094274640E-003,-6.777391582727432E-002,-3.825549781322479E-001,8.903291821479797E-001,
1.426266666666667E+009,1.134825684130192E-002,-5.218295007944107E-002,-3.495855331420898E-001,9.156566262245178E-001,1.134825684130192E-002,-5.218295007944107E-002,-3.495855331420898E-001,9.156566262245178E-001,
1.434633333333334E+009,2.839714847505093E-002,-4.230527952313423E-002,-3.160220682621002E-001,9.250199198722839E-001,2.839714847505093E-002,-4.230527952313423E-002,-3.160220682621002E-001,9.250199198722839E-001,
1.443000000000000E+009,4.631219431757927E-002,-4.513819143176079E-002,-2.986697852611542E-001,9.291098713874817E-001,4.631219431757927E-002,-4.513819143176079E-002,-2.986697852611542E-001,9.291098713874817E-001,
1.451366666666667E+009,6.012301892042160E-002,-5.852578207850456E-002,-2.665971517562866E-001,9.318537712097168E-001,6.012301892042160E-002,-5.852578207850456E-002,-2.665971517562866E-001,9.318537712097168E-001,
1.459733333333334E+009,6.517718732357025E-002,-8.196584135293961E-002,-2.498869448900223E-001,9.341309070587158E-001,6.517718732357025E-002,-8.196584135293961E-002,-2.498869448900223E-001,9.341309070587158E-001,
