% Version 1.00
%
%freq[Hz],re:Trc1_S11,im:Trc1_S11,re:Trc2_S21,im:Trc2_S21,re:Trc3_S11,im:Trc3_S11,re:Trc4_S21,im:Trc4_S21,
6.900000000000000E+008,-3.815359622240067E-002,6.219328939914703E-002,-5.047861933708191E-001,-8.423221111297607E-001,-3.815359622240067E-002,6.219328939914703E-002,-5.047861933708191E-001,-8.423221111297607E-001,
6.983666666666666E+008,-2.780354209244251E-002,6.334938853979111E-002,-5.286824107170105E-001,-8.346248865127564E-001,-2.780354209244251E-002,6.334938853979111E-002,-5.286824107170105E-001,-8.346248865127564E-001,
7.067333333333334E+008,-2.080641500651836E-002,5.870105698704720E-002,-5.730848312377930E-001,-7.724533081054688E-001,-2.080641500651836E-002,5.870105698704720E-002,-5.730848312377930E-001,-7.724533081054688E-001,
7.151000000000000E+008,-1.924009062349796E-002,5.181794986128807E-002,-5.918909311294556E-001,-7.855564951896668E-001,-1.924009062349796E-002,5.181794986128807E-002,-5.918909311294556E-001,-7.855564951896668E-001,
7.234666666666666E+008,-2.149930037558079E-002,4.729332774877548E-002,-6.045860648155212E-001,-7.730270624160767E-001,-2.149930037558079E-002,4.729332774877548E-002,-6.045860648155212E-001,-7.730270624160767E-001,
7.318333333333334E+008,-2.735426463186741E-002,4.604255408048630E-002,-6.207010746002197E-001,-7.717965245246887E-001,-2.735426463186741E-002,4.604255408048630E-002,-6.207010746002197E-001,-7.717965245246887E-001,
7.402000000000000E+008,-3.297359123826027E-002,4.732128977775574E-002,-6.636081933975220E-001,-7.536914348602295E-001,-3.297359123826027E-002,4.732128977775574E-002,-6.636081933975220E-001,-7.536914348602295E-001,
7.485666666666666E+008,-3.850487619638443E-002,5.411289632320404E-002,-6.627781391143799E-001,-7.492942214012146E-001,-3.850487619638443E-002,5.411289632320404E-002,-6.627781391143799E-001,-7.492942214012146E-001,
7.569333333333334E+008,-3.853429108858109E-002,6.252851337194443E-002,-6.718828678131104E-001,-7.290754318237305E-001,-3.853429108858109E-002,6.252851337194443E-002,-6.718828678131104E-001,-7.290754318237305E-001,
7.653000000000000E+008,-3.228640928864479E-002,7.044417411088944E-002,-6.892378330230713E-001,-7.081634998321533E-001,-3.228640928864479E-002,7.044417411088944E-002,-6.892378330230713E-001,-7.081634998321533E-001,
7.736666666666666E+008,-2.453573420643807E-002,7.661636173725128E-002,-7.208741307258606E-001,-6.818447113037109E-001,-2.453573420643807E-002,7.661636173725128E-002,-7.208741307258606E-001,-6.818447113037109E-001,
7.820333333333334E+008,-1.412111148238182E-002,7.938417047262192E-002,-7.317985892295837E-001,-6.686584353446960E-001,-1.412111148238182E-002,7.938417047262192E-002,-7.317985892295837E-001,-6.686584353446960E-001,
7.904000000000000E+008,-2.802879549562931E-003,7.825549691915512E-002,-7.364615797996521E-001,-6.475130915641785E-001,-2.802879549562931E-003,7.825549691915512E-002,-7.364615797996521E-001,-6.475130915641785E-001,
7.987666666666666E+008,2.850463148206472E-003,7.293634116649628E-002,-7.705171108245850E-001,-6.262438297271729E-001,2.850463148206472E-003,7.293634116649628E-002,-7.705171108245850E-001,-6.262438297271729E-001,
8.071333333333334E+008,6.958877667784691E-003,6.801825016736984E-002,-7.755758762359619E-001,-6.149724721908569E-001,6.958877667784691E-003,6.801825016736984E-002,-7.755758762359619E-001,-6.149724721908569E-001,
8.155000000000000E+008,2.225072821602225E-003,6.233639642596245E-002,-7.989785671234131E-001,-5.935037732124329E-001,2.225072821602225E-003,6.233639642596245E-002,-7.989785671234131E-001,-5.935037732124329E-001,
8.238666666666666E+008,-1.545851409900934E-004,5.874418839812279E-002,-7.997746467590332E-001,-5.637835264205933E-001,-1.545851409900934E-004,5.874418839812279E-002,-7.997746467590332E-001,-5.637835264205933E-001,
8.322333333333334E+008,-6.003812421113253E-003,6.001295149326325E-002,-8.217544555664063E-001,-5.437957048416138E-001,-6.003812421113253E-003,6.001295149326325E-002,-8.217544555664063E-001,-5.437957048416138E-001,
8.406000000000000E+008,-1.004528533667326E-002,6.426466256380081E-002,-8.331102728843689E-001,-5.307777523994446E-001,-1.004528533667326E-002,6.426466256380081E-002,-8.331102728843689E-001,-5.307777523994446E-001,
8.489666666666668E+008,-1.223859377205372E-002,7.195445895195007E-002,-8.431131243705750E-001,-5.152610540390015E-001,-1.223859377205372E-002,7.195445895195007E-002,-8.431131243705750E-001,-5.152610540390015E-001,
8.573333333333334E+008,-9.270302020013332E-003,7.954241335391998E-002,-8.595380783081055E-001,-4.737832546234131E-001,-9.270302020013332E-003,7.954241335391998E-002,-8.595380783081055E-001,-4.737832546234131E-001,
8.657000000000000E+008,1.179399550892413E-003,8.656651526689529E-002,-8.763362169265747E-001,-4.541360139846802E-001,1.179399550892413E-003,8.656651526689529E-002,-8.763362169265747E-001,-4.541360139846802E-001,
8.740666666666668E+008,1.000137813389301E-002,8.863402903079987E-002,-8.730422854423523E-001,-4.405225217342377E-001,1.000137813389301E-002,8.863402903079987E-002,-8.730422854423523E-001,-4.405225217342377E-001,
8.824333333333334E+008,2.101140655577183E-002,8.769402652978897E-002,-8.906197547912598E-001,-4.261271655559540E-001,2.101140655577183E-002,8.769402652978897E-002,-8.906197547912598E-001,-4.261271655559540E-001,
8.908000000000000E+008,3.127887845039368E-002,8.247613906860352E-002,-8.913555145263672E-001,-3.937727808952332E-001,3.127887845039368E-002,8.247613906860352E-002,-8.913555145263672E-001,-3.937727808952332E-001,
8.991666666666668E+008,3.585459664463997E-002,7.507696002721787E-002,-9.047887325286865E-001,-3.663627505302429E-001,3.585459664463997E-002,7.507696002721787E-002,-9.047887325286865E-001,-3.663627505302429E-001,
9.075333333333334E+008,3.750075027346611E-002,6.862358748912811E-002,-9.357002973556519E-001,-3.473503291606903E-001,3.750075027346611E-002,6.862358748912811E-002,-9.357002973556519E-001,-3.473503291606903E-001,
9.159000000000000E+008,3.602701798081398E-002,6.587795168161392E-002,-9.416981339454651E-001,-3.189742267131805E-001,3.602701798081398E-002,6.587795168161392E-002,-9.416981339454651E-001,-3.189742267131805E-001,
9.242666666666668E+008,3.211301565170288E-002,6.257387250661850E-002,-9.463822841644287E-001,-3.040787577629089E-001,3.211301565170288E-002,6.257387250661850E-002,-9.463822841644287E-001,-3.040787577629089E-001,
9.326333333333334E+008,2.588680945336819E-002,6.356950104236603E-002,-9.663555622100830E-001,-2.793228924274445E-001,2.588680945336819E-002,6.356950104236603E-002,-9.663555622100830E-001,-2.793228924274445E-001,
9.410000000000000E+008,2.361813560128212E-002,6.795196235179901E-002,-9.597080349922180E-001,-2.468395978212357E-001,2.361813560128212E-002,6.795196235179901E-002,-9.597080349922180E-001,-2.468395978212357E-001,
9.493666666666668E+008,2.424380183219910E-002,7.411903142929077E-002,-9.574813246726990E-001,-2.278999537229538E-001,2.424380183219910E-002,7.411903142929077E-002,-9.574813246726990E-001,-2.278999537229538E-001,
9.577333333333334E+008,2.814811654388905E-002,8.216228336095810E-002,-9.728121757507324E-001,-2.038673162460327E-001,2.814811654388905E-002,8.216228336095810E-002,-9.728121757507324E-001,-2.038673162460327E-001,
9.661000000000000E+008,3.861712291836739E-002,8.798193931579590E-002,-9.694443941116333E-001,-1.789058744907379E-001,3.861712291836739E-002,8.798193931579590E-002,-9.694443941116333E-001,-1.789058744907379E-001,
9.744666666666668E+008,4.782552644610405E-002,8.702167868614197E-002,-9.748263359069824E-001,-1.558666974306107E-001,4.782552644610405E-002,8.702167868614197E-002,-9.748263359069824E-001,-1.558666974306107E-001,
9.828333333333334E+008,6.231024116277695E-002,8.284222334623337E-002,-9.776892066001892E-001,-1.343168765306473E-001,6.231024116277695E-002,8.284222334623337E-002,-9.776892066001892E-001,-1.343168765306473E-001,
9.912000000000000E+008,7.062233984470367E-002,7.555603981018066E-002,-9.761393070220947E-001,-1.072163656353951E-001,7.062233984470367E-002,7.555603981018066E-002,-9.761393070220947E-001,-1.072163656353951E-001,
9.995666666666668E+008,7.763278484344482E-002,6.538861244916916E-002,-9.917020797729492E-001,-7.033053785562515E-002,7.763278484344482E-002,6.538861244916916E-002,-9.917020797729492E-001,-7.033053785562515E-002,
1.007933333333333E+009,7.857252657413483E-002,5.535639449954033E-002,-9.888103604316711E-001,-5.435654520988464E-002,7.857252657413483E-002,5.535639449954033E-002,-9.888103604316711E-001,-5.435654520988464E-002,
1.016300000000000E+009,7.373882085084915E-002,4.884640872478485E-002,-9.904962182044983E-001,-2.888040803372860E-002,7.373882085084915E-002,4.884640872478485E-002,-9.904962182044983E-001,-2.888040803372860E-002,
1.024666666666667E+009,6.758824735879898E-002,4.240104928612709E-002,-9.902402758598328E-001,3.922900650650263E-003,6.758824735879898E-002,4.240104928612709E-002,-9.902402758598328E-001,3.922900650650263E-003,
1.033033333333333E+009,6.193338334560394E-002,4.462518170475960E-002,-9.897357821464539E-001,2.269301190972328E-002,6.193338334560394E-002,4.462518170475960E-002,-9.897357821464539E-001,2.269301190972328E-002,
1.041400000000000E+009,5.722926184535027E-002,4.980936646461487E-002,-9.747770428657532E-001,6.213900446891785E-002,5.722926184535027E-002,4.980936646461487E-002,-9.747770428657532E-001,6.213900446891785E-002,
1.049766666666667E+009,5.806792527437210E-002,5.703095346689224E-002,-9.868119359016419E-001,8.200286328792572E-002,5.806792527437210E-002,5.703095346689224E-002,-9.868119359016419E-001,8.200286328792572E-002,
1.058133333333333E+009,6.487867236137390E-002,6.231222674250603E-002,-9.799842238426209E-001,1.003801673650742E-001,6.487867236137390E-002,6.231222674250603E-002,-9.799842238426209E-001,1.003801673650742E-001,
1.066500000000000E+009,7.713397592306137E-002,6.465420871973038E-002,-9.854703545570374E-001,1.388192623853684E-001,7.713397592306137E-002,6.465420871973038E-002,-9.854703545570374E-001,1.388192623853684E-001,
1.074866666666667E+009,8.798222988843918E-002,6.115580722689629E-002,-9.681831598281860E-001,1.561552435159683E-001,8.798222988843918E-002,6.115580722689629E-002,-9.681831598281860E-001,1.561552435159683E-001,
1.083233333333334E+009,9.946914017200470E-002,4.826026409864426E-002,-9.646302461624146E-001,1.770925521850586E-001,9.946914017200470E-002,4.826026409864426E-002,-9.646302461624146E-001,1.770925521850586E-001,
1.091600000000000E+009,1.060607582330704E-001,3.700156509876251E-002,-9.558355808258057E-001,1.982643753290176E-001,1.060607582330704E-001,3.700156509876251E-002,-9.558355808258057E-001,1.982643753290176E-001,
1.099966666666667E+009,1.083930134773254E-001,2.133031561970711E-002,-9.588240981101990E-001,2.367298603057861E-001,1.083930134773254E-001,2.133031561970711E-002,-9.588240981101990E-001,2.367298603057861E-001,
1.108333333333334E+009,9.989693015813828E-002,1.007853727787733E-002,-9.374429583549500E-001,2.411626726388931E-001,9.989693015813828E-002,1.007853727787733E-002,-9.374429583549500E-001,2.411626726388931E-001,
1.116700000000000E+009,8.662823587656021E-002,8.008567616343498E-003,-9.360086917877197E-001,2.848073840141296E-001,8.662823587656021E-002,8.008567616343498E-003,-9.360086917877197E-001,2.848073840141296E-001,
1.125066666666667E+009,7.576421648263931E-002,8.268379606306553E-003,-9.408423900604248E-001,2.952822446823120E-001,7.576421648263931E-002,8.268379606306553E-003,-9.408423900604248E-001,2.952822446823120E-001,
1.133433333333334E+009,6.779738515615463E-002,1.898681931197643E-002,-9.410592913627625E-001,3.212980926036835E-001,6.779738515615463E-002,1.898681931197643E-002,-9.410592913627625E-001,3.212980926036835E-001,
1.141800000000000E+009,6.825826317071915E-002,2.931773662567139E-002,-9.116088151931763E-001,3.419795036315918E-001,6.825826317071915E-002,2.931773662567139E-002,-9.116088151931763E-001,3.419795036315918E-001,
1.150166666666667E+009,7.611966878175736E-002,4.196320846676827E-002,-8.939180970191956E-001,3.724675774574280E-001,7.611966878175736E-002,4.196320846676827E-002,-8.939180970191956E-001,3.724675774574280E-001,
1.158533333333334E+009,9.081117808818817E-002,4.682978615164757E-002,-8.959709405899048E-001,3.966583013534546E-001,9.081117808818817E-002,4.682978615164757E-002,-8.959709405899048E-001,3.966583013534546E-001,
1.166900000000000E+009,1.105493381619453E-001,4.294509440660477E-002,-8.849679231643677E-001,4.303530156612396E-001,1.105493381619453E-001,4.294509440660477E-002,-8.849679231643677E-001,4.303530156612396E-001,
1.175266666666667E+009,1.247506737709045E-001,2.806669659912586E-002,-8.742731213569641E-001,4.346498250961304E-001,1.247506737709045E-001,2.806669659912586E-002,-8.742731213569641E-001,4.346498250961304E-001,
1.183633333333334E+009,1.354184746742249E-001,9.277010336518288E-003,-8.612497448921204E-001,4.718365669250488E-001,1.354184746742249E-001,9.277010336518288E-003,-8.612497448921204E-001,4.718365669250488E-001,
1.192000000000000E+009,1.354400813579559E-001,-1.349694933742285E-002,-8.507316112518311E-001,4.777908921241760E-001,1.354400813579559E-001,-1.349694933742285E-002,-8.507316112518311E-001,4.777908921241760E-001,
1.200366666666667E+009,1.241742745041847E-001,-3.036621026694775E-002,-8.423154950141907E-001,5.051339268684387E-001,1.241742745041847E-001,-3.036621026694775E-002,-8.423154950141907E-001,5.051339268684387E-001,
1.208733333333334E+009,1.088207960128784E-001,-4.096402227878571E-002,-8.376885652542114E-001,5.222271084785461E-001,1.088207960128784E-001,-4.096402227878571E-002,-8.376885652542114E-001,5.222271084785461E-001,
1.217100000000000E+009,9.116191416978836E-002,-3.922023624181747E-002,-8.218466043472290E-001,5.415440201759338E-001,9.116191416978836E-002,-3.922023624181747E-002,-8.218466043472290E-001,5.415440201759338E-001,
1.225466666666667E+009,8.059491217136383E-002,-3.257367014884949E-002,-7.967959642410278E-001,5.694442391395569E-001,8.059491217136383E-002,-3.257367014884949E-002,-7.967959642410278E-001,5.694442391395569E-001,
1.233833333333334E+009,7.458703219890595E-002,-1.723714359104633E-002,-7.799570560455322E-001,5.884492397308350E-001,7.458703219890595E-002,-1.723714359104633E-002,-7.799570560455322E-001,5.884492397308350E-001,
1.242200000000000E+009,7.948081195354462E-002,-2.810955746099353E-003,-7.651994228363037E-001,6.021468639373779E-001,7.948081195354462E-002,-2.810955746099353E-003,-7.651994228363037E-001,6.021468639373779E-001,
1.250566666666667E+009,9.464117884635925E-002,3.950012382119894E-003,-7.358027100563049E-001,6.292901039123535E-001,9.464117884635925E-002,3.950012382119894E-003,-7.358027100563049E-001,6.292901039123535E-001,
1.258933333333334E+009,1.117508783936501E-001,5.984162562526763E-004,-7.449288964271545E-001,6.496025919914246E-001,1.117508783936501E-001,5.984162562526763E-004,-7.449288964271545E-001,6.496025919914246E-001,
1.267300000000000E+009,1.278922110795975E-001,-1.451930217444897E-002,-7.235703468322754E-001,6.611505150794983E-001,1.278922110795975E-001,-1.451930217444897E-002,-7.235703468322754E-001,6.611505150794983E-001,
1.275666666666667E+009,1.363015621900559E-001,-3.569714725017548E-002,-6.883595585823059E-001,6.830364465713501E-001,1.363015621900559E-001,-3.569714725017548E-002,-6.883595585823059E-001,6.830364465713501E-001,
1.284033333333334E+009,1.332135349512100E-001,-6.012840196490288E-002,-6.810823678970337E-001,6.994443535804749E-001,1.332135349512100E-001,-6.012840196490288E-002,-6.810823678970337E-001,6.994443535804749E-001,
1.292400000000000E+009,1.205373257398605E-001,-8.020045608282089E-002,-6.702190041542053E-001,7.141104340553284E-001,1.205373257398605E-001,-8.020045608282089E-002,-6.702190041542053E-001,7.141104340553284E-001,
1.300766666666667E+009,1.007254198193550E-001,-8.959695696830750E-002,-6.477892994880676E-001,7.297241687774658E-001,1.007254198193550E-001,-8.959695696830750E-002,-6.477892994880676E-001,7.297241687774658E-001,
1.309133333333334E+009,7.832057029008865E-002,-8.971633762121201E-002,-6.360853910446167E-001,7.469102740287781E-001,7.832057029008865E-002,-8.971633762121201E-002,-6.360853910446167E-001,7.469102740287781E-001,
1.317500000000000E+009,6.561895459890366E-002,-7.950851321220398E-002,-6.118912100791931E-001,7.610124945640564E-001,6.561895459890366E-002,-7.950851321220398E-002,-6.118912100791931E-001,7.610124945640564E-001,
1.325866666666667E+009,5.960522219538689E-002,-6.224372982978821E-002,-5.956505537033081E-001,7.774517536163330E-001,5.960522219538689E-002,-6.224372982978821E-002,-5.956505537033081E-001,7.774517536163330E-001,
1.334233333333334E+009,6.583318859338760E-002,-4.759553074836731E-002,-5.664381980895996E-001,7.983655929565430E-001,6.583318859338760E-002,-4.759553074836731E-002,-5.664381980895996E-001,7.983655929565430E-001,
1.342600000000000E+009,7.857900112867355E-002,-4.169409349560738E-002,-5.457875728607178E-001,8.163063526153565E-001,7.857900112867355E-002,-4.169409349560738E-002,-5.457875728607178E-001,8.163063526153565E-001,
1.350966666666667E+009,9.516648948192596E-002,-4.673802852630615E-002,-5.140645503997803E-001,8.391562700271606E-001,9.516648948192596E-002,-4.673802852630615E-002,-5.140645503997803E-001,8.391562700271606E-001,
1.359333333333334E+009,1.092669218778610E-001,-6.106597185134888E-002,-5.031338334083557E-001,8.403638601303101E-001,1.092669218778610E-001,-6.106597185134888E-002,-5.031338334083557E-001,8.403638601303101E-001,
1.367700000000000E+009,1.083095893263817E-001,-8.419016748666763E-002,-4.852037131786346E-001,8.473116755485535E-001,1.083095893263817E-001,-8.419016748666763E-002,-4.852037131786346E-001,8.473116755485535E-001,
1.376066666666667E+009,1.007499471306801E-001,-1.049353033304215E-001,-4.690142571926117E-001,8.612201809883118E-001,1.007499471306801E-001,-1.049353033304215E-001,-4.690142571926117E-001,8.612201809883118E-001,
1.384433333333334E+009,8.115404844284058E-002,-1.234959140419960E-001,-4.431484639644623E-001,8.822726011276245E-001,8.115404844284058E-002,-1.234959140419960E-001,-4.431484639644623E-001,8.822726011276245E-001,
1.392800000000000E+009,5.783889070153236E-002,-1.278714984655380E-001,-4.325934052467346E-001,8.764512538909912E-001,5.783889070153236E-002,-1.278714984655380E-001,-4.325934052467346E-001,8.764512538909912E-001,
1.401166666666667E+009,3.639248013496399E-002,-1.206748560070992E-001,-4.084513187408447E-001,8.952330350875855E-001,3.639248013496399E-002,-1.206748560070992E-001,-4.084513187408447E-001,8.952330350875855E-001,
1.409533333333334E+009,2.151244319975376E-002,-1.052246466279030E-001,-3.782274723052979E-001,9.074021577835083E-001,2.151244319975376E-002,-1.052246466279030E-001,-3.782274723052979E-001,9.074021577835083E-001,
1.417900000000000E+009,1.880869828164578E-002,-8.282350748777390E-002,-3.645885288715363E-001,9.028239250183106E-001,1.880869828164578E-002,-8.282350748777390E-002,-3.645885288715363E-001,9.028239250183106E-001,
1.426266666666667E+009,2.888126112520695E-002,-6.858503073453903E-002,-3.304392397403717E-001,9.281201362609863E-001,2.888126112520695E-002,-6.858503073453903E-002,-3.304392397403717E-001,9.281201362609863E-001,
1.434633333333334E+009,4.626365751028061E-002,-6.023005768656731E-002,-2.958154380321503E-001,9.362863302230835E-001,4.626365751028061E-002,-6.023005768656731E-002,-2.958154380321503E-001,9.362863302230835E-001,
1.443000000000000E+009,6.342031061649323E-002,-6.474465876817703E-002,-2.784099876880646E-001,9.401860237121582E-001,6.342031061649323E-002,-6.474465876817703E-002,-2.784099876880646E-001,9.401860237121582E-001,
1.451366666666667E+009,7.616009563207626E-002,-7.904912531375885E-002,-2.454351037740707E-001,9.415620565414429E-001,7.616009563207626E-002,-7.904912531375885E-002,-2.454351037740707E-001,9.415620565414429E-001,
1.459733333333334E+009,8.011572808027268E-002,-1.032681018114090E-001,-2.299832403659821E-001,9.428208470344544E-001,8.011572808027268E-002,-1.032681018114090E-001,-2.299832403659821E-001,9.428208470344544E-001,
