% Version 1.00
%
%freq[Hz],re:Trc1_S11,im:Trc1_S11,re:Trc2_S21,im:Trc2_S21,re:Trc3_S11,im:Trc3_S11,re:Trc4_S21,im:Trc4_S21,
6.900000000000000E+008,-3.120203316211700E-002,5.193737149238586E-002,-4.993548691272736E-001,-8.500448465347290E-001,-3.120203316211700E-002,5.193737149238586E-002,-4.993548691272736E-001,-8.500448465347290E-001,
6.983666666666666E+008,-2.108399756252766E-002,5.286682397127152E-002,-5.214110016822815E-001,-8.415334820747376E-001,-2.108399756252766E-002,5.286682397127152E-002,-5.214110016822815E-001,-8.415334820747376E-001,
7.067333333333334E+008,-1.415977906435728E-002,4.802024737000465E-002,-5.660955905914307E-001,-7.799564003944397E-001,-1.415977906435728E-002,4.802024737000465E-002,-5.660955905914307E-001,-7.799564003944397E-001,
7.151000000000000E+008,-1.286081131547689E-002,4.054750874638557E-002,-5.850716829299927E-001,-7.931902408599854E-001,-1.286081131547689E-002,4.054750874638557E-002,-5.850716829299927E-001,-7.931902408599854E-001,
7.234666666666666E+008,-1.565956883132458E-002,3.546214848756790E-002,-5.965672731399536E-001,-7.811314463615418E-001,-1.565956883132458E-002,3.546214848756790E-002,-5.965672731399536E-001,-7.811314463615418E-001,
7.318333333333334E+008,-2.194708026945591E-002,3.339972347021103E-002,-6.106709241867065E-001,-7.793313264846802E-001,-2.194708026945591E-002,3.339972347021103E-002,-6.106709241867065E-001,-7.793313264846802E-001,
7.402000000000000E+008,-2.787413820624352E-002,3.403308987617493E-002,-6.569375395774841E-001,-7.615382671356201E-001,-2.787413820624352E-002,3.403308987617493E-002,-6.569375395774841E-001,-7.615382671356201E-001,
7.485666666666666E+008,-3.412412106990814E-002,4.049471393227577E-002,-6.555940508842468E-001,-7.581712007522583E-001,-3.412412106990814E-002,4.049471393227577E-002,-6.555940508842468E-001,-7.581712007522583E-001,
7.569333333333334E+008,-3.456697613000870E-002,4.872079938650131E-002,-6.625384688377380E-001,-7.379695773124695E-001,-3.456697613000870E-002,4.872079938650131E-002,-6.625384688377380E-001,-7.379695773124695E-001,
7.653000000000000E+008,-2.900972403585911E-002,5.656201392412186E-002,-6.817934513092041E-001,-7.167767286300659E-001,-2.900972403585911E-002,5.656201392412186E-002,-6.817934513092041E-001,-7.167767286300659E-001,
7.736666666666666E+008,-2.140143513679504E-002,6.292865425348282E-002,-7.139344215393066E-001,-6.910783052444458E-001,-2.140143513679504E-002,6.292865425348282E-002,-7.139344215393066E-001,-6.910783052444458E-001,
7.820333333333334E+008,-1.139663532376289E-002,6.594714522361755E-002,-7.257175445556641E-001,-6.781032085418701E-001,-1.139663532376289E-002,6.594714522361755E-002,-7.257175445556641E-001,-6.781032085418701E-001,
7.904000000000000E+008,-2.857371291611344E-004,6.492272019386292E-002,-7.296926379203796E-001,-6.573286056518555E-001,-2.857371291611344E-004,6.492272019386292E-002,-7.296926379203796E-001,-6.573286056518555E-001,
7.987666666666666E+008,5.044918507337570E-003,5.959584936499596E-002,-7.646481394767761E-001,-6.367606520652771E-001,5.044918507337570E-003,5.959584936499596E-002,-7.646481394767761E-001,-6.367606520652771E-001,
8.071333333333334E+008,8.573206141591072E-003,5.446794256567955E-002,-7.697040438652039E-001,-6.245669126510620E-001,8.573206141591072E-003,5.446794256567955E-002,-7.697040438652039E-001,-6.245669126510620E-001,
8.155000000000000E+008,3.278657793998718E-003,4.866005107760429E-002,-7.926957011222839E-001,-6.037022471427918E-001,3.278657793998718E-003,4.866005107760429E-002,-7.926957011222839E-001,-6.037022471427918E-001,
8.238666666666666E+008,8.920088293962181E-004,4.501550272107124E-002,-7.943479418754578E-001,-5.749478340148926E-001,8.920088293962181E-004,4.501550272107124E-002,-7.943479418754578E-001,-5.749478340148926E-001,
8.322333333333334E+008,-5.645252298563719E-003,4.522128030657768E-002,-8.168703317642212E-001,-5.553944110870361E-001,-5.645252298563719E-003,4.522128030657768E-002,-8.168703317642212E-001,-5.553944110870361E-001,
8.406000000000000E+008,-1.053657196462154E-002,4.914472997188568E-002,-8.271599411964417E-001,-5.424097776412964E-001,-1.053657196462154E-002,4.914472997188568E-002,-8.271599411964417E-001,-5.424097776412964E-001,
8.489666666666668E+008,-1.337490975856781E-002,5.634430423378944E-002,-8.376893997192383E-001,-5.266772508621216E-001,-1.337490975856781E-002,5.634430423378944E-002,-8.376893997192383E-001,-5.266772508621216E-001,
8.573333333333334E+008,-1.080181170254946E-002,6.408355385065079E-002,-8.551150560379028E-001,-4.855709969997406E-001,-1.080181170254946E-002,6.408355385065079E-002,-8.551150560379028E-001,-4.855709969997406E-001,
8.657000000000000E+008,-1.097617088817060E-003,7.100412249565125E-002,-8.714275956153870E-001,-4.650339782238007E-001,-1.097617088817060E-003,7.100412249565125E-002,-8.714275956153870E-001,-4.650339782238007E-001,
8.740666666666668E+008,7.611010689288378E-003,7.358324527740479E-002,-8.696908354759216E-001,-4.535074830055237E-001,7.611010689288378E-003,7.358324527740479E-002,-8.696908354759216E-001,-4.535074830055237E-001,
8.824333333333334E+008,1.843534968793392E-002,7.275701314210892E-002,-8.865841627120972E-001,-4.387766718864441E-001,1.843534968793392E-002,7.275701314210892E-002,-8.865841627120972E-001,-4.387766718864441E-001,
8.908000000000000E+008,2.823485620319843E-002,6.785818934440613E-002,-8.874496817588806E-001,-4.067212939262390E-001,2.823485620319843E-002,6.785818934440613E-002,-8.874496817588806E-001,-4.067212939262390E-001,
8.991666666666668E+008,3.258046880364418E-002,6.079427152872086E-002,-9.017347693443298E-001,-3.790778815746307E-001,3.258046880364418E-002,6.079427152872086E-002,-9.017347693443298E-001,-3.790778815746307E-001,
9.075333333333334E+008,3.360114619135857E-002,5.417309701442719E-002,-9.325238466262817E-001,-3.607461154460907E-001,3.360114619135857E-002,5.417309701442719E-002,-9.325238466262817E-001,-3.607461154460907E-001,
9.159000000000000E+008,3.135949000716209E-002,5.124836787581444E-002,-9.386847615242004E-001,-3.320952951908112E-001,3.135949000716209E-002,5.124836787581444E-002,-9.386847615242004E-001,-3.320952951908112E-001,
9.242666666666668E+008,2.671434916555882E-002,4.776367917656899E-002,-9.435099363327026E-001,-3.170952796936035E-001,2.671434916555882E-002,4.776367917656899E-002,-9.435099363327026E-001,-3.170952796936035E-001,
9.326333333333334E+008,1.960219629108906E-002,4.842550307512283E-002,-9.646952152252197E-001,-2.939541935920715E-001,1.960219629108906E-002,4.842550307512283E-002,-9.646952152252197E-001,-2.939541935920715E-001,
9.410000000000000E+008,1.655375957489014E-002,5.266686156392098E-002,-9.567381143569946E-001,-2.603793442249298E-001,1.655375957489014E-002,5.266686156392098E-002,-9.567381143569946E-001,-2.603793442249298E-001,
9.493666666666668E+008,1.638250239193440E-002,5.882378295063973E-002,-9.556868076324463E-001,-2.425985932350159E-001,1.638250239193440E-002,5.882378295063973E-002,-9.556868076324463E-001,-2.425985932350159E-001,
9.577333333333334E+008,1.997623406350613E-002,6.691281497478485E-002,-9.715546369552612E-001,-2.182778120040894E-001,1.997623406350613E-002,6.691281497478485E-002,-9.715546369552612E-001,-2.182778120040894E-001,
9.661000000000000E+008,2.971465326845646E-002,7.315063476562500E-002,-9.689717292785645E-001,-1.940987259149551E-001,2.971465326845646E-002,7.315063476562500E-002,-9.689717292785645E-001,-1.940987259149551E-001,
9.744666666666668E+008,3.871545940637589E-002,7.268460839986801E-002,-9.743109941482544E-001,-1.710926890373230E-001,3.871545940637589E-002,7.268460839986801E-002,-9.743109941482544E-001,-1.710926890373230E-001,
9.828333333333334E+008,5.286383256316185E-002,6.907075643539429E-002,-9.764975309371948E-001,-1.494758874177933E-001,5.286383256316185E-002,6.907075643539429E-002,-9.764975309371948E-001,-1.494758874177933E-001,
9.912000000000000E+008,6.131171062588692E-002,6.205276399850845E-002,-9.765494465827942E-001,-1.223597824573517E-001,6.131171062588692E-002,6.205276399850845E-002,-9.765494465827942E-001,-1.223597824573517E-001,
9.995666666666668E+008,6.789620965719223E-002,5.229862779378891E-002,-9.916867613792419E-001,-8.395794779062271E-002,6.789620965719223E-002,5.229862779378891E-002,-9.916867613792419E-001,-8.395794779062271E-002,
1.007933333333333E+009,6.833026558160782E-002,4.260744526982307E-002,-9.903645515441895E-001,-7.020217925310135E-002,6.833026558160782E-002,4.260744526982307E-002,-9.903645515441895E-001,-7.020217925310135E-002,
1.016300000000000E+009,6.282743811607361E-002,3.624004125595093E-002,-9.922506213188171E-001,-4.403448104858398E-002,6.282743811607361E-002,3.624004125595093E-002,-9.922506213188171E-001,-4.403448104858398E-002,
1.024666666666667E+009,5.588024854660034E-002,2.984550967812538E-002,-9.923273324966431E-001,-1.118685025721788E-002,5.588024854660034E-002,2.984550967812538E-002,-9.923273324966431E-001,-1.118685025721788E-002,
1.033033333333333E+009,4.934361949563026E-002,3.218629211187363E-002,-9.921013712882996E-001,7.896786555647850E-003,4.934361949563026E-002,3.218629211187363E-002,-9.921013712882996E-001,7.896786555647850E-003,
1.041400000000000E+009,4.380662739276886E-002,3.751031681895256E-002,-9.779943823814392E-001,4.634394496679306E-002,4.380662739276886E-002,3.751031681895256E-002,-9.779943823814392E-001,4.634394496679306E-002,
1.049766666666667E+009,4.381339251995087E-002,4.504894837737083E-002,-9.900993108749390E-001,6.607718765735626E-002,4.381339251995087E-002,4.504894837737083E-002,-9.900993108749390E-001,6.607718765735626E-002,
1.058133333333333E+009,5.011120438575745E-002,5.069894716143608E-002,-9.836066365242004E-001,8.446414023637772E-002,5.011120438575745E-002,5.069894716143608E-002,-9.836066365242004E-001,8.446414023637772E-002,
1.066500000000000E+009,6.208105012774468E-002,5.368750542402268E-002,-9.907919764518738E-001,1.234482899308205E-001,6.208105012774468E-002,5.368750542402268E-002,-9.907919764518738E-001,1.234482899308205E-001,
1.074866666666667E+009,7.292240113019943E-002,5.079772695899010E-002,-9.731211662292481E-001,1.407070457935333E-001,7.292240113019943E-002,5.079772695899010E-002,-9.731211662292481E-001,1.407070457935333E-001,
1.083233333333334E+009,8.465941250324249E-002,3.839173167943955E-002,-9.707719087600708E-001,1.623785048723221E-001,8.465941250324249E-002,3.839173167943955E-002,-9.707719087600708E-001,1.623785048723221E-001,
1.091600000000000E+009,9.120594710111618E-002,2.756421454250813E-002,-9.618043899536133E-001,1.831957548856735E-001,9.120594710111618E-002,2.756421454250813E-002,-9.618043899536133E-001,1.831957548856735E-001,
1.099966666666667E+009,9.304197877645493E-002,1.253278460353613E-002,-9.652532935142517E-001,2.214640676975250E-001,9.304197877645493E-002,1.253278460353613E-002,-9.652532935142517E-001,2.214640676975250E-001,
1.108333333333334E+009,8.416756987571716E-002,1.405099988915026E-003,-9.438937306404114E-001,2.256978899240494E-001,8.416756987571716E-002,1.405099988915026E-003,-9.438937306404114E-001,2.256978899240494E-001,
1.116700000000000E+009,7.046540826559067E-002,2.492018393240869E-005,-9.428938031196594E-001,2.693800032138825E-001,7.046540826559067E-002,2.492018393240869E-005,-9.428938031196594E-001,2.693800032138825E-001,
1.125066666666667E+009,5.836585909128189E-002,4.770321538671851E-004,-9.478268027305603E-001,2.804107964038849E-001,5.836585909128189E-002,4.770321538671851E-004,-9.478268027305603E-001,2.804107964038849E-001,
1.133433333333334E+009,4.968404397368431E-002,1.223265752196312E-002,-9.483451247215271E-001,3.053852617740631E-001,4.968404397368431E-002,1.223265752196312E-002,-9.483451247215271E-001,3.053852617740631E-001,
1.141800000000000E+009,4.953964427113533E-002,2.274128794670105E-002,-9.200465083122253E-001,3.264921009540558E-001,4.953964427113533E-002,2.274128794670105E-002,-9.200465083122253E-001,3.264921009540558E-001,
1.150166666666667E+009,5.653818324208260E-002,3.599498048424721E-002,-9.033931493759155E-001,3.573598265647888E-001,5.653818324208260E-002,3.599498048424721E-002,-9.033931493759155E-001,3.573598265647888E-001,
1.158533333333334E+009,7.097057253122330E-002,4.163510352373123E-002,-9.055764079093933E-001,3.818824887275696E-001,7.097057253122330E-002,4.163510352373123E-002,-9.055764079093933E-001,3.818824887275696E-001,
1.166900000000000E+009,9.043393284082413E-002,3.859250992536545E-002,-8.945226669311523E-001,4.151203036308289E-001,9.043393284082413E-002,3.859250992536545E-002,-8.945226669311523E-001,4.151203036308289E-001,
1.175266666666667E+009,1.052288636565208E-001,2.467445097863674E-002,-8.842695355415344E-001,4.196396470069885E-001,1.052288636565208E-001,2.467445097863674E-002,-8.842695355415344E-001,4.196396470069885E-001,
1.183633333333334E+009,1.166360378265381E-001,6.543922238051891E-003,-8.735188841819763E-001,4.585018754005432E-001,1.166360378265381E-001,6.543922238051891E-003,-8.735188841819763E-001,4.585018754005432E-001,
1.192000000000000E+009,1.171584501862526E-001,-1.559868175536394E-002,-8.626781702041626E-001,4.637320935726166E-001,1.171584501862526E-001,-1.559868175536394E-002,-8.626781702041626E-001,4.637320935726166E-001,
1.200366666666667E+009,1.060543060302734E-001,-3.236413747072220E-002,-8.540545701980591E-001,4.918766021728516E-001,1.060543060302734E-001,-3.236413747072220E-002,-8.540545701980591E-001,4.918766021728516E-001,
1.208733333333334E+009,9.034458547830582E-002,-4.281704872846603E-002,-8.485262989997864E-001,5.080325007438660E-001,9.034458547830582E-002,-4.281704872846603E-002,-8.485262989997864E-001,5.080325007438660E-001,
1.217100000000000E+009,7.218773663043976E-002,-4.034013673663139E-002,-8.343915343284607E-001,5.291618704795837E-001,7.218773663043976E-002,-4.034013673663139E-002,-8.343915343284607E-001,5.291618704795837E-001,
1.225466666666667E+009,6.080116331577301E-002,-3.299903497099876E-002,-8.090320229530335E-001,5.566216707229614E-001,6.080116331577301E-002,-3.299903497099876E-002,-8.090320229530335E-001,5.566216707229614E-001,
1.233833333333334E+009,5.391427502036095E-002,-1.727408543229103E-002,-7.922495603561401E-001,5.755906701087952E-001,5.391427502036095E-002,-1.727408543229103E-002,-7.922495603561401E-001,5.755906701087952E-001,
1.242200000000000E+009,5.774632841348648E-002,-1.909057958982885E-003,-7.778125405311585E-001,5.890566110610962E-001,5.774632841348648E-002,-1.909057958982885E-003,-7.778125405311585E-001,5.890566110610962E-001,
1.250566666666667E+009,7.245323807001114E-002,5.737271625548601E-003,-7.507521510124207E-001,6.172990202903748E-001,7.245323807001114E-002,5.737271625548601E-003,-7.507521510124207E-001,6.172990202903748E-001,
1.258933333333334E+009,8.981779962778091E-002,3.634450957179070E-003,-7.596646547317505E-001,6.370139122009277E-001,8.981779962778091E-002,3.634450957179070E-003,-7.596646547317505E-001,6.370139122009277E-001,
1.267300000000000E+009,1.065484881401062E-001,-1.043373905122280E-002,-7.378776073455811E-001,6.495237350463867E-001,1.065484881401062E-001,-1.043373905122280E-002,-7.378776073455811E-001,6.495237350463867E-001,
1.275666666666667E+009,1.156406477093697E-001,-3.106117621064186E-002,-7.041638493537903E-001,6.716332435607910E-001,1.156406477093697E-001,-3.106117621064186E-002,-7.041638493537903E-001,6.716332435607910E-001,
1.284033333333334E+009,1.136647909879684E-001,-5.526897683739662E-002,-6.970950961112976E-001,6.913329362869263E-001,1.136647909879684E-001,-5.526897683739662E-002,-6.970950961112976E-001,6.913329362869263E-001,
1.292400000000000E+009,1.014875397086144E-001,-7.503091543912888E-002,-6.854548454284668E-001,7.044194340705872E-001,1.014875397086144E-001,-7.503091543912888E-002,-6.854548454284668E-001,7.044194340705872E-001,
1.300766666666667E+009,8.210336416959763E-002,-8.420974016189575E-002,-6.626850366592407E-001,7.199165225028992E-001,8.210336416959763E-002,-8.420974016189575E-002,-6.626850366592407E-001,7.199165225028992E-001,
1.309133333333334E+009,5.964359641075134E-002,-8.392533659934998E-002,-6.512674689292908E-001,7.374561429023743E-001,5.964359641075134E-002,-8.392533659934998E-002,-6.512674689292908E-001,7.374561429023743E-001,
1.317500000000000E+009,4.611323028802872E-002,-7.314474135637283E-002,-6.274393200874329E-001,7.533416152000427E-001,4.611323028802872E-002,-7.314474135637283E-002,-6.274393200874329E-001,7.533416152000427E-001,
1.325866666666667E+009,3.948801755905151E-002,-5.495686084032059E-002,-6.113335490226746E-001,7.679941058158875E-001,3.948801755905151E-002,-5.495686084032059E-002,-6.113335490226746E-001,7.679941058158875E-001,
1.334233333333334E+009,4.505163431167603E-002,-3.905862569808960E-002,-5.831242799758911E-001,7.890915274620056E-001,4.505163431167603E-002,-3.905862569808960E-002,-5.831242799758911E-001,7.890915274620056E-001,
1.342600000000000E+009,5.756743624806404E-002,-3.219181671738625E-002,-5.635721087455750E-001,8.078268766403198E-001,5.756743624806404E-002,-3.219181671738625E-002,-5.635721087455750E-001,8.078268766403198E-001,
1.350966666666667E+009,7.445859909057617E-002,-3.595457598567009E-002,-5.330245494842529E-001,8.316375613212585E-001,7.445859909057617E-002,-3.595457598567009E-002,-5.330245494842529E-001,8.316375613212585E-001,
1.359333333333334E+009,8.885967731475830E-002,-4.930146038532257E-002,-5.211866497993469E-001,8.321220278739929E-001,8.885967731475830E-002,-4.930146038532257E-002,-5.211866497993469E-001,8.321220278739929E-001,
1.367700000000000E+009,8.906000852584839E-002,-7.240904867649078E-002,-5.032176375389099E-001,8.409997224807739E-001,8.906000852584839E-002,-7.240904867649078E-002,-5.032176375389099E-001,8.409997224807739E-001,
1.376066666666667E+009,8.254382014274597E-002,-9.296306967735291E-002,-4.882104098796845E-001,8.558867573738098E-001,8.254382014274597E-002,-9.296306967735291E-002,-4.882104098796845E-001,8.558867573738098E-001,
1.384433333333334E+009,6.377691030502319E-002,-1.116149649024010E-001,-4.627932906150818E-001,8.770764470100403E-001,6.377691030502319E-002,-1.116149649024010E-001,-4.627932906150818E-001,8.770764470100403E-001,
1.392800000000000E+009,4.059011116623879E-002,-1.159564182162285E-001,-4.496794044971466E-001,8.716208934783936E-001,4.059011116623879E-002,-1.159564182162285E-001,-4.496794044971466E-001,8.716208934783936E-001,
1.401166666666667E+009,1.919031701982021E-002,-1.081597730517387E-001,-4.263045489788055E-001,8.898761868476868E-001,1.919031701982021E-002,-1.081597730517387E-001,-4.263045489788055E-001,8.898761868476868E-001,
1.409533333333334E+009,4.437215160578489E-003,-9.222370386123657E-002,-3.963046967983246E-001,9.019610881805420E-001,4.437215160578489E-003,-9.222370386123657E-002,-3.963046967983246E-001,9.019610881805420E-001,
1.417900000000000E+009,1.565360929816961E-003,-6.876547634601593E-002,-3.833722472190857E-001,8.969495892524719E-001,1.565360929816961E-003,-6.876547634601593E-002,-3.833722472190857E-001,8.969495892524719E-001,
1.426266666666667E+009,1.142430119216442E-002,-5.297783389687538E-002,-3.498318791389465E-001,9.235731363296509E-001,1.142430119216442E-002,-5.297783389687538E-002,-3.498318791389465E-001,9.235731363296509E-001,
1.434633333333334E+009,2.839573659002781E-002,-4.313657805323601E-002,-3.163788914680481E-001,9.326199293136597E-001,2.839573659002781E-002,-4.313657805323601E-002,-3.163788914680481E-001,9.326199293136597E-001,
1.443000000000000E+009,4.635504260659218E-002,-4.629707336425781E-002,-2.989148497581482E-001,9.368188977241516E-001,4.635504260659218E-002,-4.629707336425781E-002,-2.989148497581482E-001,9.368188977241516E-001,
1.451366666666667E+009,6.007400527596474E-002,-5.993480235338211E-002,-2.665858864784241E-001,9.396085739135742E-001,6.007400527596474E-002,-5.993480235338211E-002,-2.665858864784241E-001,9.396085739135742E-001,
1.459733333333334E+009,6.475364416837692E-002,-8.387100696563721E-002,-2.483645379543304E-001,9.415456652641296E-001,6.475364416837692E-002,-8.387100696563721E-002,-2.483645379543304E-001,9.415456652641296E-001,
