% Version 1.00
%
%freq[Hz],re:Trc1_S11,im:Trc1_S11,re:Trc2_S21,im:Trc2_S21,re:Trc3_S11,im:Trc3_S11,re:Trc4_S21,im:Trc4_S21,
6.900000000000000E+008,-2.331024780869484E-002,6.023359671235085E-002,-5.010478496551514E-001,-8.475788235664368E-001,-2.331024780869484E-002,6.023359671235085E-002,-5.010478496551514E-001,-8.475788235664368E-001,
6.983666666666666E+008,-1.286032143980265E-002,6.105350703001022E-002,-5.237435698509216E-001,-8.391958475112915E-001,-1.286032143980265E-002,6.105350703001022E-002,-5.237435698509216E-001,-8.391958475112915E-001,
7.067333333333334E+008,-5.708843935281038E-003,5.590448155999184E-002,-5.687381029129028E-001,-7.772599458694458E-001,-5.708843935281038E-003,5.590448155999184E-002,-5.687381029129028E-001,-7.772599458694458E-001,
7.151000000000000E+008,-4.069068003445864E-003,4.830309376120567E-002,-5.877776145935059E-001,-7.906684875488281E-001,-4.069068003445864E-003,4.830309376120567E-002,-5.877776145935059E-001,-7.906684875488281E-001,
7.234666666666666E+008,-6.525159813463688E-003,4.302537441253662E-002,-6.001997590065002E-001,-7.794344425201416E-001,-6.525159813463688E-003,4.302537441253662E-002,-6.001997590065002E-001,-7.794344425201416E-001,
7.318333333333334E+008,-1.239828113466501E-002,4.082475230097771E-002,-6.151459217071533E-001,-7.774145603179932E-001,-1.239828113466501E-002,4.082475230097771E-002,-6.151459217071533E-001,-7.774145603179932E-001,
7.402000000000000E+008,-1.788542233407497E-002,4.137914255261421E-002,-6.600634455680847E-001,-7.598772644996643E-001,-1.788542233407497E-002,4.137914255261421E-002,-6.600634455680847E-001,-7.598772644996643E-001,
7.485666666666666E+008,-2.341847307980061E-002,4.756684228777885E-002,-6.580336093902588E-001,-7.553905844688416E-001,-2.341847307980061E-002,4.756684228777885E-002,-6.580336093902588E-001,-7.553905844688416E-001,
7.569333333333334E+008,-2.327744849026203E-002,5.552847683429718E-002,-6.657796502113342E-001,-7.349165678024292E-001,-2.327744849026203E-002,5.552847683429718E-002,-6.657796502113342E-001,-7.349165678024292E-001,
7.653000000000000E+008,-1.696039177477360E-002,6.289606541395187E-002,-6.852394342422485E-001,-7.147983908653259E-001,-1.696039177477360E-002,6.289606541395187E-002,-6.852394342422485E-001,-7.147983908653259E-001,
7.736666666666666E+008,-9.003495797514916E-003,6.891299784183502E-002,-7.173801064491272E-001,-6.883236765861511E-001,-9.003495797514916E-003,6.891299784183502E-002,-7.173801064491272E-001,-6.883236765861511E-001,
7.820333333333334E+008,1.591320848092437E-003,7.123664766550064E-002,-7.278812527656555E-001,-6.761263608932495E-001,1.591320848092437E-003,7.123664766550064E-002,-7.278812527656555E-001,-6.761263608932495E-001,
7.904000000000000E+008,1.298536825925112E-002,6.974033266305924E-002,-7.326808571815491E-001,-6.546120047569275E-001,1.298536825925112E-002,6.974033266305924E-002,-7.326808571815491E-001,-6.546120047569275E-001,
7.987666666666666E+008,1.851597800850868E-002,6.388020515441895E-002,-7.667990326881409E-001,-6.341475248336792E-001,1.851597800850868E-002,6.388020515441895E-002,-7.667990326881409E-001,-6.341475248336792E-001,
8.071333333333334E+008,2.247339114546776E-002,5.818110704421997E-002,-7.716479301452637E-001,-6.223793625831604E-001,2.247339114546776E-002,5.818110704421997E-002,-7.716479301452637E-001,-6.223793625831604E-001,
8.155000000000000E+008,1.749657280743122E-002,5.180075764656067E-002,-7.950741648674011E-001,-6.009754538536072E-001,1.749657280743122E-002,5.180075764656067E-002,-7.950741648674011E-001,-6.009754538536072E-001,
8.238666666666666E+008,1.460618525743485E-002,4.717911779880524E-002,-7.965986132621765E-001,-5.717440843582153E-001,1.460618525743485E-002,4.717911779880524E-002,-7.965986132621765E-001,-5.717440843582153E-001,
8.322333333333334E+008,8.349405601620674E-003,4.749175906181335E-002,-8.183314800262451E-001,-5.514236688613892E-001,8.349405601620674E-003,4.749175906181335E-002,-8.183314800262451E-001,-5.514236688613892E-001,
8.406000000000000E+008,3.936047200113535E-003,5.094114318490028E-002,-8.297541737556458E-001,-5.382071137428284E-001,3.936047200113535E-003,5.094114318490028E-002,-8.297541737556458E-001,-5.382071137428284E-001,
8.489666666666668E+008,1.730143325403333E-003,5.799693614244461E-002,-8.403034806251526E-001,-5.234726071357727E-001,1.730143325403333E-003,5.799693614244461E-002,-8.403034806251526E-001,-5.234726071357727E-001,
8.573333333333334E+008,4.706719424575567E-003,6.519205123186112E-002,-8.576102852821350E-001,-4.821396768093109E-001,4.706719424575567E-003,6.519205123186112E-002,-8.576102852821350E-001,-4.821396768093109E-001,
8.657000000000000E+008,1.504952553659678E-002,7.115415483713150E-002,-8.734816312789917E-001,-4.617794454097748E-001,1.504952553659678E-002,7.115415483713150E-002,-8.734816312789917E-001,-4.617794454097748E-001,
8.740666666666668E+008,2.394097670912743E-002,7.288973033428192E-002,-8.715053200721741E-001,-4.496274888515472E-001,2.394097670912743E-002,7.288973033428192E-002,-8.715053200721741E-001,-4.496274888515472E-001,
8.824333333333334E+008,3.479537367820740E-002,7.138305157423019E-002,-8.885059952735901E-001,-4.348767101764679E-001,3.479537367820740E-002,7.138305157423019E-002,-8.885059952735901E-001,-4.348767101764679E-001,
8.908000000000000E+008,4.463831707835197E-002,6.567954272031784E-002,-8.894530534744263E-001,-4.028216898441315E-001,4.463831707835197E-002,6.567954272031784E-002,-8.894530534744263E-001,-4.028216898441315E-001,
8.991666666666668E+008,4.870865494012833E-002,5.801880359649658E-002,-9.029369950294495E-001,-3.752395212650299E-001,4.870865494012833E-002,5.801880359649658E-002,-9.029369950294495E-001,-3.752395212650299E-001,
9.075333333333334E+008,4.986364394426346E-002,5.060561373829842E-002,-9.324821233749390E-001,-3.561267554759979E-001,4.986364394426346E-002,5.060561373829842E-002,-9.324821233749390E-001,-3.561267554759979E-001,
9.159000000000000E+008,4.758039489388466E-002,4.706452414393425E-002,-9.396531581878662E-001,-3.276450037956238E-001,4.758039489388466E-002,4.706452414393425E-002,-9.396531581878662E-001,-3.276450037956238E-001,
9.242666666666668E+008,4.277154803276062E-002,4.311322048306465E-002,-9.446225166320801E-001,-3.139350712299347E-001,4.277154803276062E-002,4.311322048306465E-002,-9.446225166320801E-001,-3.139350712299347E-001,
9.326333333333334E+008,3.593618050217629E-002,4.348243772983551E-002,-9.655181765556335E-001,-2.891012132167816E-001,3.593618050217629E-002,4.348243772983551E-002,-9.655181765556335E-001,-2.891012132167816E-001,
9.410000000000000E+008,3.313553705811501E-002,4.716311022639275E-002,-9.586372375488281E-001,-2.560288012027741E-001,3.313553705811501E-002,4.716311022639275E-002,-9.586372375488281E-001,-2.560288012027741E-001,
9.493666666666668E+008,3.319417685270309E-002,5.256041139364243E-002,-9.572216272354126E-001,-2.371419966220856E-001,3.319417685270309E-002,5.256041139364243E-002,-9.572216272354126E-001,-2.371419966220856E-001,
9.577333333333334E+008,3.679989650845528E-002,5.982763320207596E-002,-9.724175930023193E-001,-2.130745351314545E-001,3.679989650845528E-002,5.982763320207596E-002,-9.724175930023193E-001,-2.130745351314545E-001,
9.661000000000000E+008,4.690628126263619E-002,6.500475108623505E-002,-9.699524044990540E-001,-1.892163455486298E-001,4.690628126263619E-002,6.500475108623505E-002,-9.699524044990540E-001,-1.892163455486298E-001,
9.744666666666668E+008,5.559886246919632E-002,6.368407607078552E-002,-9.750962257385254E-001,-1.654759794473648E-001,5.559886246919632E-002,6.368407607078552E-002,-9.750962257385254E-001,-1.654759794473648E-001,
9.828333333333334E+008,6.968980282545090E-002,5.913339555263519E-002,-9.775274395942688E-001,-1.445384621620178E-001,6.968980282545090E-002,5.913339555263519E-002,-9.775274395942688E-001,-1.445384621620178E-001,
9.912000000000000E+008,7.759840041399002E-002,5.127663165330887E-002,-9.767525792121887E-001,-1.172507405281067E-001,7.759840041399002E-002,5.127663165330887E-002,-9.767525792121887E-001,-1.172507405281067E-001,
9.995666666666668E+008,8.359788358211517E-002,4.076832905411720E-002,-9.918252229690552E-001,-8.076207339763641E-002,8.359788358211517E-002,4.076832905411720E-002,-9.918252229690552E-001,-8.076207339763641E-002,
1.007933333333333E+009,8.380670100450516E-002,3.052113763988018E-002,-9.913395643234253E-001,-6.582222133874893E-002,8.380670100450516E-002,3.052113763988018E-002,-9.913395643234253E-001,-6.582222133874893E-002,
1.016300000000000E+009,7.795230299234390E-002,2.352697588503361E-002,-9.923949837684631E-001,-3.960263356566429E-002,7.795230299234390E-002,2.352697588503361E-002,-9.923949837684631E-001,-3.960263356566429E-002,
1.024666666666667E+009,7.080104947090149E-002,1.658718287944794E-002,-9.918602108955383E-001,-6.350726820528507E-003,7.080104947090149E-002,1.658718287944794E-002,-9.918602108955383E-001,-6.350726820528507E-003,
1.033033333333333E+009,6.401695311069489E-002,1.830672100186348E-002,-9.919623732566834E-001,1.233539916574955E-002,6.401695311069489E-002,1.830672100186348E-002,-9.919623732566834E-001,1.233539916574955E-002,
1.041400000000000E+009,5.837607383728027E-002,2.308302558958530E-002,-9.771053791046143E-001,5.097226053476334E-002,5.837607383728027E-002,2.308302558958530E-002,-9.771053791046143E-001,5.097226053476334E-002,
1.049766666666667E+009,5.838915333151817E-002,2.968467026948929E-002,-9.894807338714600E-001,7.090203464031220E-002,5.838915333151817E-002,2.968467026948929E-002,-9.894807338714600E-001,7.090203464031220E-002,
1.058133333333333E+009,6.443265080451965E-002,3.452486544847488E-002,-9.829685688018799E-001,8.976079523563385E-002,6.443265080451965E-002,3.452486544847488E-002,-9.829685688018799E-001,8.976079523563385E-002,
1.066500000000000E+009,7.587591558694840E-002,3.605601936578751E-002,-9.891911149024963E-001,1.292231827974320E-001,7.587591558694840E-002,3.605601936578751E-002,-9.891911149024963E-001,1.292231827974320E-001,
1.074866666666667E+009,8.640889078378677E-002,3.259279951453209E-002,-9.714613556861877E-001,1.462142616510391E-001,8.640889078378677E-002,3.259279951453209E-002,-9.714613556861877E-001,1.462142616510391E-001,
1.083233333333334E+009,9.717275947332382E-002,1.926814392209053E-002,-9.688997268676758E-001,1.674337387084961E-001,9.717275947332382E-002,1.926814392209053E-002,-9.688997268676758E-001,1.674337387084961E-001,
1.091600000000000E+009,1.030758023262024E-001,7.632762193679810E-003,-9.600968360900879E-001,1.890055239200592E-001,1.030758023262024E-001,7.632762193679810E-003,-9.600968360900879E-001,1.890055239200592E-001,
1.099966666666667E+009,1.038661375641823E-001,-8.410996757447720E-003,-9.628505110740662E-001,2.271734327077866E-001,1.038661375641823E-001,-8.410996757447720E-003,-9.628505110740662E-001,2.271734327077866E-001,
1.108333333333334E+009,9.420572966337204E-002,-1.982087641954422E-002,-9.413339495658875E-001,2.304545342922211E-001,9.420572966337204E-002,-1.982087641954422E-002,-9.413339495658875E-001,2.304545342922211E-001,
1.116700000000000E+009,7.960040867328644E-002,-2.110491693019867E-002,-9.405950307846069E-001,2.747562825679779E-001,7.960040867328644E-002,-2.110491693019867E-002,-9.405950307846069E-001,2.747562825679779E-001,
1.125066666666667E+009,6.729951500892639E-002,-2.131794765591621E-002,-9.460873007774353E-001,2.849835753440857E-001,6.729951500892639E-002,-2.131794765591621E-002,-9.460873007774353E-001,2.849835753440857E-001,
1.133433333333334E+009,5.799938365817070E-002,-1.040271669626236E-002,-9.462902545928955E-001,3.102667331695557E-001,5.799938365817070E-002,-1.040271669626236E-002,-9.462902545928955E-001,3.102667331695557E-001,
1.141800000000000E+009,5.701531097292900E-002,-1.388665114063770E-004,-9.180782437324524E-001,3.320774137973785E-001,5.701531097292900E-002,-1.388665114063770E-004,-9.180782437324524E-001,3.320774137973785E-001,
1.150166666666667E+009,6.365469843149185E-002,1.243285182863474E-002,-9.009593725204468E-001,3.625126183032990E-001,6.365469843149185E-002,1.243285182863474E-002,-9.009593725204468E-001,3.625126183032990E-001,
1.158533333333334E+009,7.772926986217499E-002,1.742943190038204E-002,-9.028837680816650E-001,3.874444663524628E-001,7.772926986217499E-002,1.742943190038204E-002,-9.028837680816650E-001,3.874444663524628E-001,
1.166900000000000E+009,9.643179923295975E-002,1.330011896789074E-002,-8.919517397880554E-001,4.215828180313110E-001,9.643179923295975E-002,1.330011896789074E-002,-8.919517397880554E-001,4.215828180313110E-001,
1.175266666666667E+009,1.100885570049286E-001,-1.168199814856052E-003,-8.813561797142029E-001,4.261351227760315E-001,1.100885570049286E-001,-1.168199814856052E-003,-8.813561797142029E-001,4.261351227760315E-001,
1.183633333333334E+009,1.200132891535759E-001,-2.006157115101814E-002,-8.687026500701904E-001,4.637040793895721E-001,1.200132891535759E-001,-2.006157115101814E-002,-8.687026500701904E-001,4.637040793895721E-001,
1.192000000000000E+009,1.192249134182930E-001,-4.273362457752228E-002,-8.580392003059387E-001,4.699729382991791E-001,1.192249134182930E-001,-4.273362457752228E-002,-8.580392003059387E-001,4.699729382991791E-001,
1.200366666666667E+009,1.067970767617226E-001,-5.941609293222427E-002,-8.489220142364502E-001,4.971500933170319E-001,1.067970767617226E-001,-5.941609293222427E-002,-8.489220142364502E-001,4.971500933170319E-001,
1.208733333333334E+009,9.017951041460037E-002,-6.986054033041000E-002,-8.435306549072266E-001,5.130975246429443E-001,9.017951041460037E-002,-6.986054033041000E-002,-8.435306549072266E-001,5.130975246429443E-001,
1.217100000000000E+009,7.095848023891449E-002,-6.755561381578445E-002,-8.288311958312988E-001,5.344321727752686E-001,7.095848023891449E-002,-6.755561381578445E-002,-8.288311958312988E-001,5.344321727752686E-001,
1.225466666666667E+009,5.842293053865433E-002,-6.016062945127487E-002,-8.042616844177246E-001,5.602928996086121E-001,5.842293053865433E-002,-6.016062945127487E-002,-8.042616844177246E-001,5.602928996086121E-001,
1.233833333333334E+009,5.133989453315735E-002,-4.459203034639359E-002,-7.884436845779419E-001,5.800074934959412E-001,5.133989453315735E-002,-4.459203034639359E-002,-7.884436845779419E-001,5.800074934959412E-001,
1.242200000000000E+009,5.469450354576111E-002,-2.974019758403301E-002,-7.741049528121948E-001,5.933828353881836E-001,5.469450354576111E-002,-2.974019758403301E-002,-7.741049528121948E-001,5.933828353881836E-001,
1.250566666666667E+009,6.867615133523941E-002,-2.256138622760773E-002,-7.463054060935974E-001,6.217807531356812E-001,6.867615133523941E-002,-2.256138622760773E-002,-7.463054060935974E-001,6.217807531356812E-001,
1.258933333333334E+009,8.472049236297607E-002,-2.508249692618847E-002,-7.552003264427185E-001,6.429051756858826E-001,8.472049236297607E-002,-2.508249692618847E-002,-7.552003264427185E-001,6.429051756858826E-001,
1.267300000000000E+009,9.982158243656158E-002,-3.961040079593658E-002,-7.324180603027344E-001,6.546006798744202E-001,9.982158243656158E-002,-3.961040079593658E-002,-7.324180603027344E-001,6.546006798744202E-001,
1.275666666666667E+009,1.077242866158485E-001,-6.064359843730927E-002,-6.981955170631409E-001,6.765540838241577E-001,1.077242866158485E-001,-6.064359843730927E-002,-6.981955170631409E-001,6.765540838241577E-001,
1.284033333333334E+009,1.039165556430817E-001,-8.472745120525360E-002,-6.906664371490479E-001,6.949132680892944E-001,1.039165556430817E-001,-8.472745120525360E-002,-6.906664371490479E-001,6.949132680892944E-001,
1.292400000000000E+009,8.995912969112396E-002,-1.042528599500656E-001,-6.787084341049194E-001,7.091521620750427E-001,8.995912969112396E-002,-1.042528599500656E-001,-6.787084341049194E-001,7.091521620750427E-001,
1.300766666666667E+009,6.955167651176453E-002,-1.128054484724999E-001,-6.558933854103088E-001,7.238357663154602E-001,6.955167651176453E-002,-1.128054484724999E-001,-6.558933854103088E-001,7.238357663154602E-001,
1.309133333333334E+009,4.578483849763870E-002,-1.116331070661545E-001,-6.453050374984741E-001,7.406013607978821E-001,4.578483849763870E-002,-1.116331070661545E-001,-6.453050374984741E-001,7.406013607978821E-001,
1.317500000000000E+009,3.132028505206108E-002,-1.008026599884033E-001,-6.220581531524658E-001,7.546510100364685E-001,3.132028505206108E-002,-1.008026599884033E-001,-6.220581531524658E-001,7.546510100364685E-001,
1.325866666666667E+009,2.422522194683552E-002,-8.198406547307968E-002,-6.063544154167175E-001,7.705227136611939E-001,2.422522194683552E-002,-8.198406547307968E-002,-6.063544154167175E-001,7.705227136611939E-001,
1.334233333333334E+009,2.918848581612110E-002,-6.609120219945908E-002,-5.778923630714417E-001,7.921947836875916E-001,2.918848581612110E-002,-6.609120219945908E-002,-5.778923630714417E-001,7.921947836875916E-001,
1.342600000000000E+009,4.087331891059876E-002,-5.929505452513695E-002,-5.578386187553406E-001,8.112080693244934E-001,4.087331891059876E-002,-5.929505452513695E-002,-5.578386187553406E-001,8.112080693244934E-001,
1.350966666666667E+009,5.661909282207489E-002,-6.307187676429749E-002,-5.260843038558960E-001,8.351321220397949E-001,5.661909282207489E-002,-6.307187676429749E-002,-5.260843038558960E-001,8.351321220397949E-001,
1.359333333333334E+009,6.985852867364883E-002,-7.730884850025177E-002,-5.141397118568420E-001,8.370096683502197E-001,6.985852867364883E-002,-7.730884850025177E-002,-5.141397118568420E-001,8.370096683502197E-001,
1.367700000000000E+009,6.856416165828705E-002,-9.967590123414993E-002,-4.955338537693024E-001,8.443625569343567E-001,6.856416165828705E-002,-9.967590123414993E-002,-4.955338537693024E-001,8.443625569343567E-001,
1.376066666666667E+009,6.019907444715500E-002,-1.196636781096458E-001,-4.799798429012299E-001,8.588624000549316E-001,6.019907444715500E-002,-1.196636781096458E-001,-4.799798429012299E-001,8.588624000549316E-001,
1.384433333333334E+009,3.981412202119827E-002,-1.374622434377670E-001,-4.540838301181793E-001,8.792794346809387E-001,3.981412202119827E-002,-1.374622434377670E-001,-4.540838301181793E-001,8.792794346809387E-001,
1.392800000000000E+009,1.529474183917046E-002,-1.406541913747788E-001,-4.417353868484497E-001,8.723888397216797E-001,1.529474183917046E-002,-1.406541913747788E-001,-4.417353868484497E-001,8.723888397216797E-001,
1.401166666666667E+009,-7.162813562899828E-003,-1.322046816349030E-001,-4.191208779811859E-001,8.907510638237000E-001,-7.162813562899828E-003,-1.322046816349030E-001,-4.191208779811859E-001,8.907510638237000E-001,
1.409533333333334E+009,-2.264003083109856E-002,-1.150641739368439E-001,-3.888947069644928E-001,9.025838375091553E-001,-2.264003083109856E-002,-1.150641739368439E-001,-3.888947069644928E-001,9.025838375091553E-001,
1.417900000000000E+009,-2.627139911055565E-002,-9.087239205837250E-002,-3.762124776840210E-001,8.988798260688782E-001,-2.627139911055565E-002,-9.087239205837250E-002,-3.762124776840210E-001,8.988798260688782E-001,
1.426266666666667E+009,-1.732916571199894E-002,-7.448820024728775E-002,-3.434259891510010E-001,9.244717955589294E-001,-1.732916571199894E-002,-7.448820024728775E-002,-3.434259891510010E-001,9.244717955589294E-001,
1.434633333333334E+009,-7.141153910197318E-004,-6.447046250104904E-002,-3.097246587276459E-001,9.342393279075623E-001,-7.141153910197318E-004,-6.447046250104904E-002,-3.097246587276459E-001,9.342393279075623E-001,
1.443000000000000E+009,1.609806530177593E-002,-6.712085753679276E-002,-2.920739650726318E-001,9.386435747146606E-001,1.609806530177593E-002,-6.712085753679276E-002,-2.920739650726318E-001,9.386435747146606E-001,
1.451366666666667E+009,2.868315391242504E-002,-8.044428378343582E-002,-2.589953839778900E-001,9.408150911331177E-001,2.868315391242504E-002,-8.044428378343582E-002,-2.589953839778900E-001,9.408150911331177E-001,
1.459733333333334E+009,3.193388134241104E-002,-1.036450639367104E-001,-2.413942068815231E-001,9.435921311378479E-001,3.193388134241104E-002,-1.036450639367104E-001,-2.413942068815231E-001,9.435921311378479E-001,
