% Version 1.00
%
%freq[Hz],re:Trc1_S11,im:Trc1_S11,re:Trc2_S21,im:Trc2_S21,re:Trc3_S11,im:Trc3_S11,re:Trc4_S21,im:Trc4_S21,
6.900000000000000E+008,-2.533271163702011E-002,5.075834318995476E-002,-4.973555803298950E-001,-8.537293076515198E-001,-2.533271163702011E-002,5.075834318995476E-002,-4.973555803298950E-001,-8.537293076515198E-001,
6.983666666666666E+008,-1.534803118556738E-002,5.187830701470375E-002,-5.138382911682129E-001,-8.449597358703613E-001,-1.534803118556738E-002,5.187830701470375E-002,-5.138382911682129E-001,-8.449597358703613E-001,
7.067333333333334E+008,-8.518250659108162E-003,4.689215868711472E-002,-5.617860555648804E-001,-7.824927568435669E-001,-8.518250659108162E-003,4.689215868711472E-002,-5.617860555648804E-001,-7.824927568435669E-001,
7.151000000000000E+008,-7.185940630733967E-003,3.910811617970467E-002,-5.821152329444885E-001,-8.009424209594727E-001,-7.185940630733967E-003,3.910811617970467E-002,-5.821152329444885E-001,-8.009424209594727E-001,
7.234666666666666E+008,-9.777276776731014E-003,3.357823938131332E-002,-5.876362323760986E-001,-7.863456606864929E-001,-9.777276776731014E-003,3.357823938131332E-002,-5.876362323760986E-001,-7.863456606864929E-001,
7.318333333333334E+008,-1.567764393985272E-002,3.139637783169746E-002,-6.065518856048584E-001,-7.853593826293945E-001,-1.567764393985272E-002,3.139637783169746E-002,-6.065518856048584E-001,-7.853593826293945E-001,
7.402000000000000E+008,-2.175841294229031E-002,3.183244168758392E-002,-6.533955931663513E-001,-7.679055333137512E-001,-2.175841294229031E-002,3.183244168758392E-002,-6.533955931663513E-001,-7.679055333137512E-001,
7.485666666666666E+008,-2.771674096584320E-002,3.787557035684586E-002,-6.504258513450623E-001,-7.607709765434265E-001,-2.771674096584320E-002,3.787557035684586E-002,-6.504258513450623E-001,-7.607709765434265E-001,
7.569333333333334E+008,-2.839296869933605E-002,4.603648558259010E-002,-6.551233530044556E-001,-7.415964603424072E-001,-2.839296869933605E-002,4.603648558259010E-002,-6.551233530044556E-001,-7.415964603424072E-001,
7.653000000000000E+008,-2.297709882259369E-002,5.319418758153915E-002,-6.782089471817017E-001,-7.184959053993225E-001,-2.297709882259369E-002,5.319418758153915E-002,-6.782089471817017E-001,-7.184959053993225E-001,
7.736666666666666E+008,-1.543700043112040E-002,5.983538925647736E-002,-7.118870615959168E-001,-6.935541033744812E-001,-1.543700043112040E-002,5.983538925647736E-002,-7.118870615959168E-001,-6.935541033744812E-001,
7.820333333333334E+008,-4.918286111205816E-003,6.186641752719879E-002,-7.214832901954651E-001,-6.821368932723999E-001,-4.918286111205816E-003,6.186641752719879E-002,-7.214832901954651E-001,-6.821368932723999E-001,
7.904000000000000E+008,5.749159026890993E-003,6.124531105160713E-002,-7.282093763351440E-001,-6.627797484397888E-001,5.749159026890993E-003,6.124531105160713E-002,-7.282093763351440E-001,-6.627797484397888E-001,
7.987666666666666E+008,1.120476424694061E-002,5.555618926882744E-002,-7.604915499687195E-001,-6.432043910026550E-001,1.120476424694061E-002,5.555618926882744E-002,-7.604915499687195E-001,-6.432043910026550E-001,
8.071333333333334E+008,1.540942490100861E-002,5.016552656888962E-002,-7.695925235748291E-001,-6.282721757888794E-001,1.540942490100861E-002,5.016552656888962E-002,-7.695925235748291E-001,-6.282721757888794E-001,
8.155000000000000E+008,9.863595478236675E-003,4.405286535620689E-002,-7.887163162231445E-001,-6.091201901435852E-001,9.863595478236675E-003,4.405286535620689E-002,-7.887163162231445E-001,-6.091201901435852E-001,
8.238666666666666E+008,6.826905999332666E-003,3.947587683796883E-002,-7.929976582527161E-001,-5.807982683181763E-001,6.826905999332666E-003,3.947587683796883E-002,-7.929976582527161E-001,-5.807982683181763E-001,
8.322333333333334E+008,5.787632544524968E-004,3.954299166798592E-002,-8.145997524261475E-001,-5.547017455101013E-001,5.787632544524968E-004,3.954299166798592E-002,-8.145997524261475E-001,-5.547017455101013E-001,
8.406000000000000E+008,-4.933087620884180E-003,4.349229484796524E-002,-8.242042064666748E-001,-5.500499010086060E-001,-4.933087620884180E-003,4.349229484796524E-002,-8.242042064666748E-001,-5.500499010086060E-001,
8.489666666666668E+008,-7.666110061109066E-003,5.052727088332176E-002,-8.356019258499146E-001,-5.319038629531860E-001,-7.666110061109066E-003,5.052727088332176E-002,-8.356019258499146E-001,-5.319038629531860E-001,
8.573333333333334E+008,-4.867874551564455E-003,5.781985446810722E-002,-8.531451821327210E-001,-4.923714101314545E-001,-4.867874551564455E-003,5.781985446810722E-002,-8.531451821327210E-001,-4.923714101314545E-001,
8.657000000000000E+008,4.206445068120956E-003,6.437543034553528E-002,-8.728335499763489E-001,-4.707853496074677E-001,4.206445068120956E-003,6.437543034553528E-002,-8.728335499763489E-001,-4.707853496074677E-001,
8.740666666666668E+008,1.266785617917776E-002,6.705198436975479E-002,-8.667725324630737E-001,-4.599144756793976E-001,1.266785617917776E-002,6.705198436975479E-002,-8.667725324630737E-001,-4.599144756793976E-001,
8.824333333333334E+008,2.303532697260380E-002,6.583492457866669E-002,-8.845525383949280E-001,-4.434318542480469E-001,2.303532697260380E-002,6.583492457866669E-002,-8.845525383949280E-001,-4.434318542480469E-001,
8.908000000000000E+008,3.314534574747086E-002,6.017908081412315E-002,-8.857908844947815E-001,-4.122854471206665E-001,3.314534574747086E-002,6.017908081412315E-002,-8.857908844947815E-001,-4.122854471206665E-001,
8.991666666666668E+008,3.745459392666817E-002,5.328800156712532E-002,-8.993970155715942E-001,-3.840513527393341E-001,3.745459392666817E-002,5.328800156712532E-002,-8.993970155715942E-001,-3.840513527393341E-001,
9.075333333333334E+008,3.873486444354057E-002,4.648771136999130E-002,-9.325437545776367E-001,-3.679334521293640E-001,3.873486444354057E-002,4.648771136999130E-002,-9.325437545776367E-001,-3.679334521293640E-001,
9.159000000000000E+008,3.619909286499023E-002,4.315336048603058E-002,-9.362058043479919E-001,-3.338897824287415E-001,3.619909286499023E-002,4.315336048603058E-002,-9.362058043479919E-001,-3.338897824287415E-001,
9.242666666666668E+008,3.113273344933987E-002,3.931235522031784E-002,-9.449422359466553E-001,-3.235238790512085E-001,3.113273344933987E-002,3.931235522031784E-002,-9.449422359466553E-001,-3.235238790512085E-001,
9.326333333333334E+008,2.408639155328274E-002,4.000594839453697E-002,-9.672563076019287E-001,-2.967830896377564E-001,2.408639155328274E-002,4.000594839453697E-002,-9.672563076019287E-001,-2.967830896377564E-001,
9.410000000000000E+008,2.085710875689983E-002,4.385370761156082E-002,-9.574732780456543E-001,-2.663520574569702E-001,2.085710875689983E-002,4.385370761156082E-002,-9.574732780456543E-001,-2.663520574569702E-001,
9.493666666666668E+008,2.036111243069172E-002,4.970624297857285E-002,-9.562776684761047E-001,-2.491722404956818E-001,2.036111243069172E-002,4.970624297857285E-002,-9.562776684761047E-001,-2.491722404956818E-001,
9.577333333333334E+008,2.362437732517719E-002,5.745418369770050E-002,-9.710308313369751E-001,-2.246615290641785E-001,2.362437732517719E-002,5.745418369770050E-002,-9.710308313369751E-001,-2.246615290641785E-001,
9.661000000000000E+008,3.286856785416603E-002,6.362739950418472E-002,-9.680795669555664E-001,-2.023915946483612E-001,3.286856785416603E-002,6.362739950418472E-002,-9.680795669555664E-001,-2.023915946483612E-001,
9.744666666666668E+008,4.201545938849449E-002,6.306850910186768E-002,-9.765151143074036E-001,-1.764452308416367E-001,4.201545938849449E-002,6.306850910186768E-002,-9.765151143074036E-001,-1.764452308416367E-001,
9.828333333333334E+008,5.543793365359306E-002,5.978105217218399E-002,-9.771471619606018E-001,-1.563603132963181E-001,5.543793365359306E-002,5.978105217218399E-002,-9.771471619606018E-001,-1.563603132963181E-001,
9.912000000000000E+008,6.327991187572479E-002,5.218710005283356E-002,-9.779298305511475E-001,-1.285643726587296E-001,6.327991187572479E-002,5.218710005283356E-002,-9.779298305511475E-001,-1.285643726587296E-001,
9.995666666666668E+008,7.021754980087280E-002,4.250916093587875E-002,-9.955236911773682E-001,-9.257599711418152E-002,7.021754980087280E-002,4.250916093587875E-002,-9.955236911773682E-001,-9.257599711418152E-002,
1.007933333333333E+009,7.069025188684464E-002,3.295255079865456E-002,-9.943709969520569E-001,-7.822197675704956E-002,7.069025188684464E-002,3.295255079865456E-002,-9.943709969520569E-001,-7.822197675704956E-002,
1.016300000000000E+009,6.482771784067154E-002,2.571181766688824E-002,-9.965435862541199E-001,-5.188551917672157E-002,6.482771784067154E-002,2.571181766688824E-002,-9.965435862541199E-001,-5.188551917672157E-002,
1.024666666666667E+009,5.783877894282341E-002,1.903433166444302E-002,-9.953604936599731E-001,-1.927850395441055E-002,5.783877894282341E-002,1.903433166444302E-002,-9.953604936599731E-001,-1.927850395441055E-002,
1.033033333333333E+009,5.109163746237755E-002,2.109104394912720E-002,-9.933098554611206E-001,3.408809425309300E-004,5.109163746237755E-002,2.109104394912720E-002,-9.933098554611206E-001,3.408809425309300E-004,
1.041400000000000E+009,4.462295398116112E-002,2.589396946132183E-002,-9.813984632492065E-001,4.059779271483421E-002,4.462295398116112E-002,2.589396946132183E-002,-9.813984632492065E-001,4.059779271483421E-002,
1.049766666666667E+009,4.442554339766502E-002,3.343538567423821E-002,-9.953393340110779E-001,6.058716401457787E-002,4.442554339766502E-002,3.343538567423821E-002,-9.953393340110779E-001,6.058716401457787E-002,
1.058133333333333E+009,5.063078552484512E-002,3.867790848016739E-002,-9.888680577278137E-001,7.602280378341675E-002,5.063078552484512E-002,3.867790848016739E-002,-9.888680577278137E-001,7.602280378341675E-002,
1.066500000000000E+009,6.150248646736145E-002,4.237418249249458E-002,-9.948181509971619E-001,1.151835173368454E-001,6.150248646736145E-002,4.237418249249458E-002,-9.948181509971619E-001,1.151835173368454E-001,
1.074866666666667E+009,7.221797108650208E-002,3.932980075478554E-002,-9.745460748672485E-001,1.314467340707779E-001,7.221797108650208E-002,3.932980075478554E-002,-9.745460748672485E-001,1.314467340707779E-001,
1.083233333333334E+009,8.421158790588379E-002,2.689527533948422E-002,-9.780665040016174E-001,1.547510921955109E-001,8.421158790588379E-002,2.689527533948422E-002,-9.780665040016174E-001,1.547510921955109E-001,
1.091600000000000E+009,9.069219976663590E-002,1.592743210494518E-002,-9.667458534240723E-001,1.774332076311112E-001,9.069219976663590E-002,1.592743210494518E-002,-9.667458534240723E-001,1.774332076311112E-001,
1.099966666666667E+009,9.193330258131027E-002,7.140622474253178E-004,-9.723213315010071E-001,2.152392566204071E-001,9.193330258131027E-002,7.140622474253178E-004,-9.723213315010071E-001,2.152392566204071E-001,
1.108333333333334E+009,8.268594741821289E-002,-1.097610685974360E-002,-9.493755102157593E-001,2.170846313238144E-001,8.268594741821289E-002,-1.097610685974360E-002,-9.493755102157593E-001,2.170846313238144E-001,
1.116700000000000E+009,6.850910931825638E-002,-1.214324589818716E-002,-9.499582648277283E-001,2.646455466747284E-001,6.850910931825638E-002,-1.214324589818716E-002,-9.499582648277283E-001,2.646455466747284E-001,
1.125066666666667E+009,5.615381896495819E-002,-1.240946538746357E-002,-9.530858993530273E-001,2.725852429866791E-001,5.615381896495819E-002,-1.240946538746357E-002,-9.530858993530273E-001,2.725852429866791E-001,
1.133433333333334E+009,4.712371900677681E-002,-1.506097149103880E-003,-9.534742236137390E-001,2.986027002334595E-001,4.712371900677681E-002,-1.506097149103880E-003,-9.534742236137390E-001,2.986027002334595E-001,
1.141800000000000E+009,4.568966105580330E-002,8.729247376322746E-003,-9.278677105903626E-001,3.192174434661865E-001,4.568966105580330E-002,8.729247376322746E-003,-9.278677105903626E-001,3.192174434661865E-001,
1.150166666666667E+009,5.227452144026756E-002,2.246607840061188E-002,-9.076704978942871E-001,3.489852547645569E-001,5.227452144026756E-002,2.246607840061188E-002,-9.076704978942871E-001,3.489852547645569E-001,
1.158533333333334E+009,6.542596220970154E-002,2.877994067966938E-002,-9.113441705703735E-001,3.780611455440521E-001,6.542596220970154E-002,2.877994067966938E-002,-9.113441705703735E-001,3.780611455440521E-001,
1.166900000000000E+009,8.510134369134903E-002,2.624996937811375E-002,-9.047630429267883E-001,4.101995527744293E-001,8.510134369134903E-002,2.624996937811375E-002,-9.047630429267883E-001,4.101995527744293E-001,
1.175266666666667E+009,9.995876997709274E-002,1.212156005203724E-002,-8.925962448120117E-001,4.162340164184570E-001,9.995876997709274E-002,1.212156005203724E-002,-8.925962448120117E-001,4.162340164184570E-001,
1.183633333333334E+009,1.111065745353699E-001,-5.798492114990950E-003,-8.790963292121887E-001,4.560637772083283E-001,1.111065745353699E-001,-5.798492114990950E-003,-8.790963292121887E-001,4.560637772083283E-001,
1.192000000000000E+009,1.109483912587166E-001,-2.812022343277931E-002,-8.690394759178162E-001,4.604474902153015E-001,1.109483912587166E-001,-2.812022343277931E-002,-8.690394759178162E-001,4.604474902153015E-001,
1.200366666666667E+009,9.980438649654388E-002,-4.443803429603577E-002,-8.614530563354492E-001,4.874443411827087E-001,9.980438649654388E-002,-4.443803429603577E-002,-8.614530563354492E-001,4.874443411827087E-001,
1.208733333333334E+009,8.357721567153931E-002,-5.547081306576729E-002,-8.538769483566284E-001,5.029467940330505E-001,8.357721567153931E-002,-5.547081306576729E-002,-8.538769483566284E-001,5.029467940330505E-001,
1.217100000000000E+009,6.496240198612213E-002,-5.322673544287682E-002,-8.367080092430115E-001,5.223662257194519E-001,6.496240198612213E-002,-5.322673544287682E-002,-8.367080092430115E-001,5.223662257194519E-001,
1.225466666666667E+009,5.276462808251381E-002,-4.596923291683197E-002,-8.167175650596619E-001,5.530386567115784E-001,5.276462808251381E-002,-4.596923291683197E-002,-8.167175650596619E-001,5.530386567115784E-001,
1.233833333333334E+009,4.532317072153091E-002,-3.012069128453732E-002,-8.008922338485718E-001,5.695933699607849E-001,4.532317072153091E-002,-3.012069128453732E-002,-8.008922338485718E-001,5.695933699607849E-001,
1.242200000000000E+009,4.816267639398575E-002,-1.460492704063654E-002,-7.843959927558899E-001,5.869216918945313E-001,4.816267639398575E-002,-1.460492704063654E-002,-7.843959927558899E-001,5.869216918945313E-001,
1.250566666666667E+009,6.238311156630516E-002,-6.321676541119814E-003,-7.546170353889465E-001,6.142581105232239E-001,6.238311156630516E-002,-6.321676541119814E-003,-7.546170353889465E-001,6.142581105232239E-001,
1.258933333333334E+009,7.928583770990372E-002,-8.037304505705833E-003,-7.680714726448059E-001,6.334354281425476E-001,7.928583770990372E-002,-8.037304505705833E-003,-7.680714726448059E-001,6.334354281425476E-001,
1.267300000000000E+009,9.570891410112381E-002,-2.140105888247490E-002,-7.467947006225586E-001,6.454291939735413E-001,9.570891410112381E-002,-2.140105888247490E-002,-7.467947006225586E-001,6.454291939735413E-001,
1.275666666666667E+009,1.049331948161125E-001,-4.229184612631798E-002,-7.094945311546326E-001,6.678377985954285E-001,1.049331948161125E-001,-4.229184612631798E-002,-7.094945311546326E-001,6.678377985954285E-001,
1.284033333333334E+009,1.031979694962502E-001,-6.575471907854080E-002,-7.065114974975586E-001,6.877666711807251E-001,1.031979694962502E-001,-6.575471907854080E-002,-7.065114974975586E-001,6.877666711807251E-001,
1.292400000000000E+009,9.052619338035584E-002,-8.586314320564270E-002,-6.951597332954407E-001,7.022343873977661E-001,9.052619338035584E-002,-8.586314320564270E-002,-6.951597332954407E-001,7.022343873977661E-001,
1.300766666666667E+009,7.077695429325104E-002,-9.494943171739578E-002,-6.720658540725708E-001,7.161561846733093E-001,7.077695429325104E-002,-9.494943171739578E-002,-6.720658540725708E-001,7.161561846733093E-001,
1.309133333333334E+009,4.723027721047401E-002,-9.427635371685028E-002,-6.632406711578369E-001,7.327418923377991E-001,4.723027721047401E-002,-9.427635371685028E-002,-6.632406711578369E-001,7.327418923377991E-001,
1.317500000000000E+009,3.311397507786751E-002,-8.425316214561462E-002,-6.381449699401856E-001,7.490929365158081E-001,3.311397507786751E-002,-8.425316214561462E-002,-6.381449699401856E-001,7.490929365158081E-001,
1.325866666666667E+009,2.576109766960144E-002,-6.544174998998642E-002,-6.222847104072571E-001,7.662305831909180E-001,2.576109766960144E-002,-6.544174998998642E-002,-6.222847104072571E-001,7.662305831909180E-001,
1.334233333333334E+009,3.052552044391632E-002,-4.920973628759384E-002,-5.932915806770325E-001,7.871679663658142E-001,3.052552044391632E-002,-4.920973628759384E-002,-5.932915806770325E-001,7.871679663658142E-001,
1.342600000000000E+009,4.288813471794128E-002,-4.199935868382454E-002,-5.759852528572083E-001,8.053032755851746E-001,4.288813471794128E-002,-4.199935868382454E-002,-5.759852528572083E-001,8.053032755851746E-001,
1.350966666666667E+009,5.875087156891823E-002,-4.453986138105393E-002,-5.440644025802612E-001,8.311977982521057E-001,5.875087156891823E-002,-4.453986138105393E-002,-5.440644025802612E-001,8.311977982521057E-001,
1.359333333333334E+009,7.373553514480591E-002,-5.738001316785812E-002,-5.322366952896118E-001,8.300886154174805E-001,7.373553514480591E-002,-5.738001316785812E-002,-5.322366952896118E-001,8.300886154174805E-001,
1.367700000000000E+009,7.371000200510025E-002,-8.032277971506119E-002,-5.124299526214600E-001,8.385977745056152E-001,7.371000200510025E-002,-8.032277971506119E-002,-5.124299526214600E-001,8.385977745056152E-001,
1.376066666666667E+009,6.718214601278305E-002,-1.001694276928902E-001,-4.989435672760010E-001,8.554379940032959E-001,6.718214601278305E-002,-1.001694276928902E-001,-4.989435672760010E-001,8.554379940032959E-001,
1.384433333333334E+009,4.798424243927002E-002,-1.189812049269676E-001,-4.694479107856751E-001,8.777587413787842E-001,4.798424243927002E-002,-1.189812049269676E-001,-4.694479107856751E-001,8.777587413787842E-001,
1.392800000000000E+009,2.514916285872459E-002,-1.233064755797386E-001,-4.630597829818726E-001,8.716108798980713E-001,2.514916285872459E-002,-1.233064755797386E-001,-4.630597829818726E-001,8.716108798980713E-001,
1.401166666666667E+009,2.676146104931831E-003,-1.150496974587441E-001,-4.356649219989777E-001,8.901497125625610E-001,2.676146104931831E-003,-1.150496974587441E-001,-4.356649219989777E-001,8.901497125625610E-001,
1.409533333333334E+009,-1.334939803928137E-002,-9.893828630447388E-002,-4.088860452175140E-001,9.016233682632446E-001,-1.334939803928137E-002,-9.893828630447388E-002,-4.088860452175140E-001,9.016233682632446E-001,
1.417900000000000E+009,-1.695728302001953E-002,-7.522627711296082E-002,-3.959353566169739E-001,8.949382305145264E-001,-1.695728302001953E-002,-7.522627711296082E-002,-3.959353566169739E-001,8.949382305145264E-001,
1.426266666666667E+009,-7.979846559464932E-003,-5.831348523497582E-002,-3.590164482593536E-001,9.265255928039551E-001,-7.979846559464932E-003,-5.831348523497582E-002,-3.590164482593536E-001,9.265255928039551E-001,
1.434633333333334E+009,8.246002718806267E-003,-4.802035540342331E-002,-3.275908231735230E-001,9.348875880241394E-001,8.246002718806267E-003,-4.802035540342331E-002,-3.275908231735230E-001,9.348875880241394E-001,
1.443000000000000E+009,2.650850825011730E-002,-4.980440065264702E-002,-3.108080029487610E-001,9.389769434928894E-001,2.650850825011730E-002,-4.980440065264702E-002,-3.108080029487610E-001,9.389769434928894E-001,
1.451366666666667E+009,4.032402113080025E-002,-6.200468540191650E-002,-2.787189483642578E-001,9.388661980628967E-001,4.032402113080025E-002,-6.200468540191650E-002,-2.787189483642578E-001,9.388661980628967E-001,
1.459733333333334E+009,4.515631124377251E-002,-8.607071638107300E-002,-2.593004405498505E-001,9.470849633216858E-001,4.515631124377251E-002,-8.607071638107300E-002,-2.593004405498505E-001,9.470849633216858E-001,
