% Version 1.00
%
%freq[Hz],re:Trc1_S11,im:Trc1_S11,re:Trc2_S21,im:Trc2_S21,re:Trc3_S11,im:Trc3_S11,re:Trc4_S21,im:Trc4_S21,
6.900000000000000E+008,-3.167127072811127E-002,5.678530409932137E-002,-5.007306337356567E-001,-8.482590913772583E-001,-3.167127072811127E-002,5.678530409932137E-002,-5.007306337356567E-001,-8.482590913772583E-001,
6.983666666666666E+008,-2.146392315626144E-002,5.785121768712997E-002,-5.237525105476379E-001,-8.399995565414429E-001,-2.146392315626144E-002,5.785121768712997E-002,-5.237525105476379E-001,-8.399995565414429E-001,
7.067333333333334E+008,-1.445272937417030E-002,5.299977958202362E-002,-5.680893063545227E-001,-7.775779366493225E-001,-1.445272937417030E-002,5.299977958202362E-002,-5.680893063545227E-001,-7.775779366493225E-001,
7.151000000000000E+008,-1.304756850004196E-002,4.573275521397591E-002,-5.875708460807800E-001,-7.909015417098999E-001,-1.304756850004196E-002,4.573275521397591E-002,-5.875708460807800E-001,-7.909015417098999E-001,
7.234666666666666E+008,-1.553228218108416E-002,4.071801155805588E-002,-5.995191335678101E-001,-7.789121270179749E-001,-1.553228218108416E-002,4.071801155805588E-002,-5.995191335678101E-001,-7.789121270179749E-001,
7.318333333333334E+008,-2.175283618271351E-002,3.883570805191994E-002,-6.144418120384216E-001,-7.777760624885559E-001,-2.175283618271351E-002,3.883570805191994E-002,-6.144418120384216E-001,-7.777760624885559E-001,
7.402000000000000E+008,-2.747232094407082E-002,3.948547691106796E-002,-6.594072580337524E-001,-7.591207027435303E-001,-2.747232094407082E-002,3.948547691106796E-002,-6.594072580337524E-001,-7.591207027435303E-001,
7.485666666666666E+008,-3.342813253402710E-002,4.603401571512222E-002,-6.575610637664795E-001,-7.557404637336731E-001,-3.342813253402710E-002,4.603401571512222E-002,-6.575610637664795E-001,-7.557404637336731E-001,
7.569333333333334E+008,-3.375728055834770E-002,5.428973212838173E-002,-6.650157570838928E-001,-7.341787219047546E-001,-3.375728055834770E-002,5.428973212838173E-002,-6.650157570838928E-001,-7.341787219047546E-001,
7.653000000000000E+008,-2.784498035907745E-002,6.186142563819885E-002,-6.837745904922485E-001,-7.143247127532959E-001,-2.784498035907745E-002,6.186142563819885E-002,-6.837745904922485E-001,-7.143247127532959E-001,
7.736666666666666E+008,-2.005132846534252E-002,6.811829656362534E-002,-7.155011296272278E-001,-6.885192990303040E-001,-2.005132846534252E-002,6.811829656362534E-002,-7.155011296272278E-001,-6.885192990303040E-001,
7.820333333333334E+008,-9.873231872916222E-003,7.087966799736023E-002,-7.273806929588318E-001,-6.759400963783264E-001,-9.873231872916222E-003,7.087966799736023E-002,-7.273806929588318E-001,-6.759400963783264E-001,
7.904000000000000E+008,1.282049226574600E-003,6.982404738664627E-002,-7.314647436141968E-001,-6.545379757881165E-001,1.282049226574600E-003,6.982404738664627E-002,-7.314647436141968E-001,-6.545379757881165E-001,
7.987666666666666E+008,6.781022995710373E-003,6.443887948989868E-002,-7.671416401863098E-001,-6.339392066001892E-001,6.781022995710373E-003,6.443887948989868E-002,-7.671416401863098E-001,-6.339392066001892E-001,
8.071333333333334E+008,1.040886156260967E-002,5.930083245038986E-002,-7.709736227989197E-001,-6.229306459426880E-001,1.040886156260967E-002,5.930083245038986E-002,-7.709736227989197E-001,-6.229306459426880E-001,
8.155000000000000E+008,5.473029334098101E-003,5.329240858554840E-002,-7.942590713500977E-001,-6.007168889045715E-001,5.473029334098101E-003,5.329240858554840E-002,-7.942590713500977E-001,-6.007168889045715E-001,
8.238666666666666E+008,2.661541104316711E-003,4.923928156495094E-002,-7.958930134773254E-001,-5.712985396385193E-001,2.661541104316711E-003,4.923928156495094E-002,-7.958930134773254E-001,-5.712985396385193E-001,
8.322333333333334E+008,-3.930129576474428E-003,5.009698122739792E-002,-8.179110884666443E-001,-5.528200864791870E-001,-3.930129576474428E-003,5.009698122739792E-002,-8.179110884666443E-001,-5.528200864791870E-001,
8.406000000000000E+008,-8.533998392522335E-003,5.399652197957039E-002,-8.284953832626343E-001,-5.386983752250671E-001,-8.533998392522335E-003,5.399652197957039E-002,-8.284953832626343E-001,-5.386983752250671E-001,
8.489666666666668E+008,-1.114968396723270E-002,6.146377325057983E-002,-8.394717574119568E-001,-5.238472819328308E-001,-1.114968396723270E-002,6.146377325057983E-002,-8.394717574119568E-001,-5.238472819328308E-001,
8.573333333333334E+008,-8.382727392017841E-003,6.893504410982132E-002,-8.570852279663086E-001,-4.821760058403015E-001,-8.382727392017841E-003,6.893504410982132E-002,-8.570852279663086E-001,-4.821760058403015E-001,
8.657000000000000E+008,1.574531546793878E-003,7.577215880155563E-002,-8.732511401176453E-001,-4.628024101257324E-001,1.574531546793878E-003,7.577215880155563E-002,-8.732511401176453E-001,-4.628024101257324E-001,
8.740666666666668E+008,1.033747661858797E-002,7.805293798446655E-002,-8.704154491424561E-001,-4.506806433200836E-001,1.033747661858797E-002,7.805293798446655E-002,-8.704154491424561E-001,-4.506806433200836E-001,
8.824333333333334E+008,2.106347121298313E-002,7.708222419023514E-002,-8.879076242446899E-001,-4.353433549404144E-001,2.106347121298313E-002,7.708222419023514E-002,-8.879076242446899E-001,-4.353433549404144E-001,
8.908000000000000E+008,3.117464110255241E-002,7.206504791975021E-002,-8.883212804794312E-001,-4.030199050903320E-001,3.117464110255241E-002,7.206504791975021E-002,-8.883212804794312E-001,-4.030199050903320E-001,
8.991666666666668E+008,3.540043532848358E-002,6.495171040296555E-002,-9.026597738265991E-001,-3.757636845111847E-001,3.540043532848358E-002,6.495171040296555E-002,-9.026597738265991E-001,-3.757636845111847E-001,
9.075333333333334E+008,3.663126006722450E-002,5.832737684249878E-002,-9.339600801467896E-001,-3.572432100772858E-001,3.663126006722450E-002,5.832737684249878E-002,-9.339600801467896E-001,-3.572432100772858E-001,
9.159000000000000E+008,3.458701074123383E-002,5.544370412826538E-002,-9.391037821769714E-001,-3.286482989788055E-001,3.458701074123383E-002,5.544370412826538E-002,-9.391037821769714E-001,-3.286482989788055E-001,
9.242666666666668E+008,3.012806363403797E-002,5.205392092466354E-002,-9.437915682792664E-001,-3.141178786754608E-001,3.012806363403797E-002,5.205392092466354E-002,-9.437915682792664E-001,-3.141178786754608E-001,
9.326333333333334E+008,2.335568144917488E-002,5.291616171598434E-002,-9.651362895965576E-001,-2.893695235252380E-001,2.335568144917488E-002,5.291616171598434E-002,-9.651362895965576E-001,-2.893695235252380E-001,
9.410000000000000E+008,2.056034840643406E-002,5.706068873405457E-002,-9.574968814849854E-001,-2.560165822505951E-001,2.056034840643406E-002,5.706068873405457E-002,-9.574968814849854E-001,-2.560165822505951E-001,
9.493666666666668E+008,2.048908360302448E-002,6.310706585645676E-002,-9.559602141380310E-001,-2.382685989141464E-001,2.048908360302448E-002,6.310706585645676E-002,-9.559602141380310E-001,-2.382685989141464E-001,
9.577333333333334E+008,2.396401390433312E-002,7.094862312078476E-002,-9.722182750701904E-001,-2.144025564193726E-001,2.396401390433312E-002,7.094862312078476E-002,-9.722182750701904E-001,-2.144025564193726E-001,
9.661000000000000E+008,3.402015194296837E-002,7.704714685678482E-002,-9.694958925247192E-001,-1.905910074710846E-001,3.402015194296837E-002,7.704714685678482E-002,-9.694958925247192E-001,-1.905910074710846E-001,
9.744666666666668E+008,4.298015683889389E-002,7.621678709983826E-002,-9.751213788986206E-001,-1.661882251501083E-001,4.298015683889389E-002,7.621678709983826E-002,-9.751213788986206E-001,-1.661882251501083E-001,
9.828333333333334E+008,5.721585452556610E-002,7.233840972185135E-002,-9.775725007057190E-001,-1.453715115785599E-001,5.721585452556610E-002,7.233840972185135E-002,-9.775725007057190E-001,-1.453715115785599E-001,
9.912000000000000E+008,6.538581848144531E-002,6.538261473178864E-002,-9.769592285156250E-001,-1.184553429484367E-001,6.538581848144531E-002,6.538261473178864E-002,-9.769592285156250E-001,-1.184553429484367E-001,
9.995666666666668E+008,7.209926098585129E-002,5.535870045423508E-002,-9.917519688606262E-001,-8.133568614721298E-002,7.209926098585129E-002,5.535870045423508E-002,-9.917519688606262E-001,-8.133568614721298E-002,
1.007933333333333E+009,7.265118509531021E-002,4.567607119679451E-002,-9.899950623512268E-001,-6.695336848497391E-002,7.265118509531021E-002,4.567607119679451E-002,-9.899950623512268E-001,-6.695336848497391E-002,
1.016300000000000E+009,6.733532249927521E-002,3.929134830832481E-002,-9.925419688224793E-001,-4.010399430990219E-002,6.733532249927521E-002,3.929134830832481E-002,-9.925419688224793E-001,-4.010399430990219E-002,
1.024666666666667E+009,6.063939258456230E-002,3.292059153318405E-002,-9.921146035194397E-001,-7.072184234857559E-003,6.063939258456230E-002,3.292059153318405E-002,-9.921146035194397E-001,-7.072184234857559E-003,
1.033033333333333E+009,5.429390072822571E-002,3.521960601210594E-002,-9.911792874336243E-001,1.170023903250694E-002,5.429390072822571E-002,3.521960601210594E-002,-9.911792874336243E-001,1.170023903250694E-002,
1.041400000000000E+009,4.886380583047867E-002,4.055230319499970E-002,-9.773126244544983E-001,5.044386535882950E-002,4.886380583047867E-002,4.055230319499970E-002,-9.773126244544983E-001,5.044386535882950E-002,
1.049766666666667E+009,4.909294843673706E-002,4.790610074996948E-002,-9.892380833625794E-001,6.972660869359970E-002,4.909294843673706E-002,4.790610074996948E-002,-9.892380833625794E-001,6.972660869359970E-002,
1.058133333333333E+009,5.530112981796265E-002,5.343302339315414E-002,-9.828702807426453E-001,8.868202567100525E-002,5.530112981796265E-002,5.343302339315414E-002,-9.828702807426453E-001,8.868202567100525E-002,
1.066500000000000E+009,6.727762520313263E-002,5.611177906394005E-002,-9.893430471420288E-001,1.277924627065659E-001,6.727762520313263E-002,5.611177906394005E-002,-9.893430471420288E-001,1.277924627065659E-001,
1.074866666666667E+009,7.794905453920364E-002,5.292302742600441E-002,-9.704046249389648E-001,1.445643901824951E-001,7.794905453920364E-002,5.292302742600441E-002,-9.704046249389648E-001,1.445643901824951E-001,
1.083233333333334E+009,8.962785452604294E-002,4.041043296456337E-002,-9.692896008491516E-001,1.660379022359848E-001,8.962785452604294E-002,4.041043296456337E-002,-9.692896008491516E-001,1.660379022359848E-001,
1.091600000000000E+009,9.627521783113480E-002,2.933746203780174E-002,-9.602789878845215E-001,1.873386502265930E-001,9.627521783113480E-002,2.933746203780174E-002,-9.602789878845215E-001,1.873386502265930E-001,
1.099966666666667E+009,9.821621328592300E-002,1.414898037910461E-002,-9.635238051414490E-001,2.255281358957291E-001,9.821621328592300E-002,1.414898037910461E-002,-9.635238051414490E-001,2.255281358957291E-001,
1.108333333333334E+009,8.948913216590881E-002,3.016030881553888E-003,-9.423839449882507E-001,2.290590852499008E-001,8.948913216590881E-002,3.016030881553888E-003,-9.423839449882507E-001,2.290590852499008E-001,
1.116700000000000E+009,7.609340548515320E-002,1.504634507000446E-003,-9.416632652282715E-001,2.737487256526947E-001,7.609340548515320E-002,1.504634507000446E-003,-9.416632652282715E-001,2.737487256526947E-001,
1.125066666666667E+009,6.434207409620285E-002,1.882883720099926E-003,-9.462016224861145E-001,2.840263843536377E-001,6.434207409620285E-002,1.882883720099926E-003,-9.462016224861145E-001,2.840263843536377E-001,
1.133433333333334E+009,5.590977892279625E-002,1.304139755666256E-002,-9.470229148864746E-001,3.096458315849304E-001,5.590977892279625E-002,1.304139755666256E-002,-9.470229148864746E-001,3.096458315849304E-001,
1.141800000000000E+009,5.545957386493683E-002,2.361031249165535E-002,-9.184482097625732E-001,3.299553990364075E-001,5.545957386493683E-002,2.361031249165535E-002,-9.184482097625732E-001,3.299553990364075E-001,
1.150166666666667E+009,6.260991841554642E-002,3.685173019766808E-002,-9.004589319229126E-001,3.615279197692871E-001,6.260991841554642E-002,3.685173019766808E-002,-9.004589319229126E-001,3.615279197692871E-001,
1.158533333333334E+009,7.678495347499847E-002,4.233815521001816E-002,-9.022542834281921E-001,3.865835368633270E-001,7.678495347499847E-002,4.233815521001816E-002,-9.022542834281921E-001,3.865835368633270E-001,
1.166900000000000E+009,9.639807790517807E-002,3.907864913344383E-002,-8.924870491027832E-001,4.198658764362335E-001,9.639807790517807E-002,3.907864913344383E-002,-8.924870491027832E-001,4.198658764362335E-001,
1.175266666666667E+009,1.108310520648956E-001,2.472457103431225E-002,-8.807244896888733E-001,4.242794513702393E-001,1.108310520648956E-001,2.472457103431225E-002,-8.807244896888733E-001,4.242794513702393E-001,
1.183633333333334E+009,1.216924563050270E-001,6.419434212148190E-003,-8.684939742088318E-001,4.613334834575653E-001,1.216924563050270E-001,6.419434212148190E-003,-8.684939742088318E-001,4.613334834575653E-001,
1.192000000000000E+009,1.221019476652145E-001,-1.586978696286678E-002,-8.590342998504639E-001,4.681234359741211E-001,1.221019476652145E-001,-1.586978696286678E-002,-8.590342998504639E-001,4.681234359741211E-001,
1.200366666666667E+009,1.110556945204735E-001,-3.259155899286270E-002,-8.505905270576477E-001,4.955523908138275E-001,1.110556945204735E-001,-3.259155899286270E-002,-8.505905270576477E-001,4.955523908138275E-001,
1.208733333333334E+009,9.548046439886093E-002,-4.305512830615044E-002,-8.448057174682617E-001,5.120078921318054E-001,9.548046439886093E-002,-4.305512830615044E-002,-8.448057174682617E-001,5.120078921318054E-001,
1.217100000000000E+009,7.762603461742401E-002,-4.059480130672455E-002,-8.307837247848511E-001,5.326990485191345E-001,7.762603461742401E-002,-4.059480130672455E-002,-8.307837247848511E-001,5.326990485191345E-001,
1.225466666666667E+009,6.653564423322678E-002,-3.334848955273628E-002,-8.061206936836243E-001,5.606924891471863E-001,6.653564423322678E-002,-3.334848955273628E-002,-8.061206936836243E-001,5.606924891471863E-001,
1.233833333333334E+009,6.003502383828163E-002,-1.782065629959106E-002,-7.892875075340271E-001,5.796986222267151E-001,6.003502383828163E-002,-1.782065629959106E-002,-7.892875075340271E-001,5.796986222267151E-001,
1.242200000000000E+009,6.405261904001236E-002,-2.542256144806743E-003,-7.742047309875488E-001,5.933039188385010E-001,6.405261904001236E-002,-2.542256144806743E-003,-7.742047309875488E-001,5.933039188385010E-001,
1.250566666666667E+009,7.877341657876968E-002,4.868637304753065E-003,-7.462331652641296E-001,6.213989853858948E-001,7.877341657876968E-002,4.868637304753065E-003,-7.462331652641296E-001,6.213989853858948E-001,
1.258933333333334E+009,9.586134552955627E-002,2.674003597348929E-003,-7.550299167633057E-001,6.407221555709839E-001,9.586134552955627E-002,2.674003597348929E-003,-7.550299167633057E-001,6.407221555709839E-001,
1.267300000000000E+009,1.122174784541130E-001,-1.176793500781059E-002,-7.337976098060608E-001,6.526317596435547E-001,1.122174784541130E-001,-1.176793500781059E-002,-7.337976098060608E-001,6.526317596435547E-001,
1.275666666666667E+009,1.210942491889000E-001,-3.240980580449104E-002,-6.996123790740967E-001,6.751064062118530E-001,1.210942491889000E-001,-3.240980580449104E-002,-6.996123790740967E-001,6.751064062118530E-001,
1.284033333333334E+009,1.188003495335579E-001,-5.665931850671768E-002,-6.927047967910767E-001,6.931339502334595E-001,1.188003495335579E-001,-5.665931850671768E-002,-6.927047967910767E-001,6.931339502334595E-001,
1.292400000000000E+009,1.064251586794853E-001,-7.658575475215912E-002,-6.818934679031372E-001,7.072542309761047E-001,1.064251586794853E-001,-7.658575475215912E-002,-6.818934679031372E-001,7.072542309761047E-001,
1.300766666666667E+009,8.695769309997559E-002,-8.598290383815765E-002,-6.588836312294006E-001,7.228922843933106E-001,8.695769309997559E-002,-8.598290383815765E-002,-6.588836312294006E-001,7.228922843933106E-001,
1.309133333333334E+009,6.462728977203369E-002,-8.568441122770309E-002,-6.479352712631226E-001,7.401816844940186E-001,6.462728977203369E-002,-8.568441122770309E-002,-6.479352712631226E-001,7.401816844940186E-001,
1.317500000000000E+009,5.151043459773064E-002,-7.507524639368057E-002,-6.238492727279663E-001,7.557404637336731E-001,5.151043459773064E-002,-7.507524639368057E-002,-6.238492727279663E-001,7.557404637336731E-001,
1.325866666666667E+009,4.512960463762283E-002,-5.706088989973068E-002,-6.076893210411072E-001,7.710501551628113E-001,4.512960463762283E-002,-5.706088989973068E-002,-6.076893210411072E-001,7.710501551628113E-001,
1.334233333333334E+009,5.100453272461891E-002,-4.132283478975296E-002,-5.787230134010315E-001,7.921572923660278E-001,5.100453272461891E-002,-4.132283478975296E-002,-5.787230134010315E-001,7.921572923660278E-001,
1.342600000000000E+009,6.349071115255356E-002,-3.475238755345345E-002,-5.585128664970398E-001,8.110620975494385E-001,6.349071115255356E-002,-3.475238755345345E-002,-5.585128664970398E-001,8.110620975494385E-001,
1.350966666666667E+009,8.016002178192139E-002,-3.844440728425980E-002,-5.269571542739868E-001,8.340026736259460E-001,8.016002178192139E-002,-3.844440728425980E-002,-5.269571542739868E-001,8.340026736259460E-001,
1.359333333333334E+009,9.456858038902283E-002,-5.226678401231766E-002,-5.165135264396668E-001,8.355625867843628E-001,9.456858038902283E-002,-5.226678401231766E-002,-5.165135264396668E-001,8.355625867843628E-001,
1.367700000000000E+009,9.420953691005707E-002,-7.489783316850662E-002,-4.982561171054840E-001,8.426197171211243E-001,9.420953691005707E-002,-7.489783316850662E-002,-4.982561171054840E-001,8.426197171211243E-001,
1.376066666666667E+009,8.729141950607300E-002,-9.550724923610687E-002,-4.830439984798431E-001,8.574551343917847E-001,8.729141950607300E-002,-9.550724923610687E-002,-4.830439984798431E-001,8.574551343917847E-001,
1.384433333333334E+009,6.835953146219254E-002,-1.140872761607170E-001,-4.576250314712524E-001,8.784486651420593E-001,6.835953146219254E-002,-1.140872761607170E-001,-4.576250314712524E-001,8.784486651420593E-001,
1.392800000000000E+009,4.531015083193779E-002,-1.185226812958717E-001,-4.451105594635010E-001,8.727484345436096E-001,4.531015083193779E-002,-1.185226812958717E-001,-4.451105594635010E-001,8.727484345436096E-001,
1.401166666666667E+009,2.407039143145084E-002,-1.113425046205521E-001,-4.220786392688751E-001,8.922182917594910E-001,2.407039143145084E-002,-1.113425046205521E-001,-4.220786392688751E-001,8.922182917594910E-001,
1.409533333333334E+009,9.069144725799561E-003,-9.565858542919159E-002,-3.911761343479157E-001,9.038187265396118E-001,9.069144725799561E-003,-9.565858542919159E-002,-3.911761343479157E-001,9.038187265396118E-001,
1.417900000000000E+009,6.421995814889669E-003,-7.258024811744690E-002,-3.780290484428406E-001,9.003534913063049E-001,6.421995814889669E-003,-7.258024811744690E-002,-3.780290484428406E-001,9.003534913063049E-001,
1.426266666666667E+009,1.643440686166287E-002,-5.724995583295822E-002,-3.447098433971405E-001,9.256719350814819E-001,1.643440686166287E-002,-5.724995583295822E-002,-3.447098433971405E-001,9.256719350814819E-001,
1.434633333333334E+009,3.385712578892708E-002,-4.780122637748718E-002,-3.100080490112305E-001,9.342423081398010E-001,3.385712578892708E-002,-4.780122637748718E-002,-3.100080490112305E-001,9.342423081398010E-001,
1.443000000000000E+009,5.159535631537437E-002,-5.098335444927216E-002,-2.925342619419098E-001,9.384493231773377E-001,5.159535631537437E-002,-5.098335444927216E-002,-2.925342619419098E-001,9.384493231773377E-001,
1.451366666666667E+009,6.494627892971039E-002,-6.471688300371170E-002,-2.598534524440765E-001,9.395668506622315E-001,6.494627892971039E-002,-6.471688300371170E-002,-2.598534524440765E-001,9.395668506622315E-001,
1.459733333333334E+009,6.949559599161148E-002,-8.841042220592499E-002,-2.427110373973846E-001,9.428405761718750E-001,6.949559599161148E-002,-8.841042220592499E-002,-2.427110373973846E-001,9.428405761718750E-001,
