% Version 1.00
%
%freq[Hz],re:Trc1_S11,im:Trc1_S11,re:Trc2_S21,im:Trc2_S21,re:Trc3_S11,im:Trc3_S11,re:Trc4_S21,im:Trc4_S21,
6.900000000000000E+008,-1.692450046539307E-002,1.627773046493530E-002,-4.655503630638123E-001,-8.716924786567688E-001,-1.692450046539307E-002,1.627773046493530E-002,-4.655503630638123E-001,-8.716924786567688E-001,
6.983666666666666E+008,-7.353192195296288E-003,1.713032089173794E-002,-4.892634749412537E-001,-8.636125922203064E-001,-7.353192195296288E-003,1.713032089173794E-002,-4.892634749412537E-001,-8.636125922203064E-001,
7.067333333333334E+008,-6.592774880118668E-004,1.205452438443899E-002,-5.357137918472290E-001,-8.030199408531189E-001,-6.592774880118668E-004,1.205452438443899E-002,-5.357137918472290E-001,-8.030199408531189E-001,
7.151000000000000E+008,1.457078724342864E-005,3.986648283898830E-003,-5.535377860069275E-001,-8.179560899734497E-001,1.457078724342864E-005,3.986648283898830E-003,-5.535377860069275E-001,-8.179560899734497E-001,
7.234666666666666E+008,-3.186786780133843E-003,-1.992582809180021E-003,-5.655900239944458E-001,-8.070755004882813E-001,-3.186786780133843E-003,-1.992582809180021E-003,-5.655900239944458E-001,-8.070755004882813E-001,
7.318333333333334E+008,-1.036108285188675E-002,-5.417192354798317E-003,-5.801330804824829E-001,-8.061025142669678E-001,-1.036108285188675E-002,-5.417192354798317E-003,-5.801330804824829E-001,-8.061025142669678E-001,
7.402000000000000E+008,-1.742468774318695E-002,-5.893739406019449E-003,-6.252723336219788E-001,-7.910777330398560E-001,-1.742468774318695E-002,-5.893739406019449E-003,-6.252723336219788E-001,-7.910777330398560E-001,
7.485666666666666E+008,-2.549217268824577E-002,-9.213179000653327E-004,-6.237086653709412E-001,-7.882672548294067E-001,-2.549217268824577E-002,-9.213179000653327E-004,-6.237086653709412E-001,-7.882672548294067E-001,
7.569333333333334E+008,-2.812686562538147E-002,6.154628470540047E-003,-6.317610144615173E-001,-7.672243714332581E-001,-2.812686562538147E-002,6.154628470540047E-003,-6.317610144615173E-001,-7.672243714332581E-001,
7.653000000000000E+008,-2.480683661997318E-002,1.331025175750256E-002,-6.515816450119019E-001,-7.489660978317261E-001,-2.480683661997318E-002,1.331025175750256E-002,-6.515816450119019E-001,-7.489660978317261E-001,
7.736666666666666E+008,-1.866081170737743E-002,1.952128298580647E-002,-6.852000355720520E-001,-7.242569923400879E-001,-1.866081170737743E-002,1.952128298580647E-002,-6.852000355720520E-001,-7.242569923400879E-001,
7.820333333333334E+008,-1.040415372699499E-002,2.233181521296501E-002,-6.970723271369934E-001,-7.123461365699768E-001,-1.040415372699499E-002,2.233181521296501E-002,-6.970723271369934E-001,-7.123461365699768E-001,
7.904000000000000E+008,-5.731327692046762E-004,2.128672040998936E-002,-7.020967602729797E-001,-6.913453936576843E-001,-5.731327692046762E-004,2.128672040998936E-002,-7.020967602729797E-001,-6.913453936576843E-001,
7.987666666666666E+008,4.224892240017653E-003,1.592002063989639E-002,-7.375149130821228E-001,-6.718047857284546E-001,4.224892240017653E-003,1.592002063989639E-002,-7.375149130821228E-001,-6.718047857284546E-001,
8.071333333333334E+008,7.072318810969591E-003,1.061125751584768E-002,-7.421910166740418E-001,-6.610417962074280E-001,7.072318810969591E-003,1.061125751584768E-002,-7.421910166740418E-001,-6.610417962074280E-001,
8.155000000000000E+008,1.636439934372902E-003,3.805113723501563E-003,-7.663982510566711E-001,-6.408061385154724E-001,1.636439934372902E-003,3.805113723501563E-003,-7.663982510566711E-001,-6.408061385154724E-001,
8.238666666666666E+008,-2.881811466068029E-003,-6.899536238051951E-004,-7.683142423629761E-001,-6.120132207870483E-001,-2.881811466068029E-003,-6.899536238051951E-004,-7.683142423629761E-001,-6.120132207870483E-001,
8.322333333333334E+008,-1.086420472711325E-002,-1.012125634588301E-003,-7.901595234870911E-001,-5.942020416259766E-001,-1.086420472711325E-002,-1.012125634588301E-003,-7.901595234870911E-001,-5.942020416259766E-001,
8.406000000000000E+008,-1.798855327069759E-002,2.564559224992991E-003,-8.017325401306152E-001,-5.825725793838501E-001,-1.798855327069759E-002,2.564559224992991E-003,-8.017325401306152E-001,-5.825725793838501E-001,
8.489666666666668E+008,-2.277220785617828E-002,8.920659311115742E-003,-8.130250573158264E-001,-5.681840181350708E-001,-2.277220785617828E-002,8.920659311115742E-003,-8.130250573158264E-001,-5.681840181350708E-001,
8.573333333333334E+008,-2.206764370203018E-002,1.678485050797463E-002,-8.323900103569031E-001,-5.287932753562927E-001,-2.206764370203018E-002,1.678485050797463E-002,-8.323900103569031E-001,-5.287932753562927E-001,
8.657000000000000E+008,-1.585230045020580E-002,2.361265942454338E-002,-8.503511548042297E-001,-5.096887350082398E-001,-1.585230045020580E-002,2.361265942454338E-002,-8.503511548042297E-001,-5.096887350082398E-001,
8.740666666666668E+008,-8.981400169432163E-003,2.682261727750301E-002,-8.489617109298706E-001,-4.982105791568756E-001,-8.981400169432163E-003,2.682261727750301E-002,-8.489617109298706E-001,-4.982105791568756E-001,
8.824333333333334E+008,3.836112737189978E-004,2.668737433850765E-002,-8.667063117027283E-001,-4.840413033962250E-001,3.836112737189978E-004,2.668737433850765E-002,-8.667063117027283E-001,-4.840413033962250E-001,
8.908000000000000E+008,8.887799456715584E-003,2.242686785757542E-002,-8.688055872917175E-001,-4.522938430309296E-001,8.887799456715584E-003,2.242686785757542E-002,-8.688055872917175E-001,-4.522938430309296E-001,
8.991666666666668E+008,1.256897021085024E-002,1.595077291131020E-002,-8.844707608222961E-001,-4.257526099681854E-001,1.256897021085024E-002,1.595077291131020E-002,-8.844707608222961E-001,-4.257526099681854E-001,
9.075333333333334E+008,1.223019510507584E-002,8.965678513050079E-003,-9.149872064590454E-001,-4.091087579727173E-001,1.223019510507584E-002,8.965678513050079E-003,-9.149872064590454E-001,-4.091087579727173E-001,
9.159000000000000E+008,8.660669438540936E-003,6.245776545256376E-003,-9.215089082717896E-001,-3.807482421398163E-001,8.660669438540936E-003,6.245776545256376E-003,-9.215089082717896E-001,-3.807482421398163E-001,
9.242666666666668E+008,2.732317894697189E-003,2.913216827437282E-003,-9.280815720558167E-001,-3.670442104339600E-001,2.732317894697189E-003,2.913216827437282E-003,-9.280815720558167E-001,-3.670442104339600E-001,
9.326333333333334E+008,-5.814555101096630E-003,3.481484949588776E-003,-9.493675231933594E-001,-3.452263176441193E-001,-5.814555101096630E-003,3.481484949588776E-003,-9.493675231933594E-001,-3.452263176441193E-001,
9.410000000000000E+008,-1.085321698337793E-002,7.854173891246319E-003,-9.439850449562073E-001,-3.122891783714294E-001,-1.085321698337793E-002,7.854173891246319E-003,-9.439850449562073E-001,-3.122891783714294E-001,
9.493666666666668E+008,-1.373809389770031E-002,1.439875736832619E-002,-9.436292052268982E-001,-2.948640584945679E-001,-1.373809389770031E-002,1.439875736832619E-002,-9.436292052268982E-001,-2.948640584945679E-001,
9.577333333333334E+008,-1.265471335500479E-002,2.321115694940090E-002,-9.601808190345764E-001,-2.726100683212280E-001,-1.265471335500479E-002,2.321115694940090E-002,-9.601808190345764E-001,-2.726100683212280E-001,
9.661000000000000E+008,-6.103562191128731E-003,3.048620186746121E-002,-9.604122638702393E-001,-2.488683760166168E-001,-6.103562191128731E-003,3.048620186746121E-002,-9.604122638702393E-001,-2.488683760166168E-001,
9.744666666666668E+008,1.449526054784656E-003,3.198187425732613E-002,-9.674240350723267E-001,-2.252219766378403E-001,1.449526054784656E-003,3.198187425732613E-002,-9.674240350723267E-001,-2.252219766378403E-001,
9.828333333333334E+008,1.409793179482222E-002,2.992227487266064E-002,-9.711904525756836E-001,-2.045093774795532E-001,1.409793179482222E-002,2.992227487266064E-002,-9.711904525756836E-001,-2.045093774795532E-001,
9.912000000000000E+008,2.120791375637054E-002,2.411422319710255E-002,-9.724279642105103E-001,-1.772788166999817E-001,2.120791375637054E-002,2.411422319710255E-002,-9.724279642105103E-001,-1.772788166999817E-001,
9.995666666666668E+008,2.750491723418236E-002,1.620776392519474E-002,-9.897750616073608E-001,-1.406516581773758E-001,2.750491723418236E-002,1.620776392519474E-002,-9.897750616073608E-001,-1.406516581773758E-001,
1.007933333333333E+009,2.725195884704590E-002,7.178271654993296E-003,-9.878746867179871E-001,-1.257272809743881E-001,2.725195884704590E-002,7.178271654993296E-003,-9.878746867179871E-001,-1.257272809743881E-001,
1.016300000000000E+009,2.123312652111054E-002,1.463883789256215E-003,-9.911348819732666E-001,-9.946255385875702E-002,2.123312652111054E-002,1.463883789256215E-003,-9.911348819732666E-001,-9.946255385875702E-002,
1.024666666666667E+009,1.354239322245121E-002,-4.763311240822077E-003,-9.927501678466797E-001,-6.782668828964233E-002,1.354239322245121E-002,-4.763311240822077E-003,-9.927501678466797E-001,-6.782668828964233E-002,
1.033033333333333E+009,5.700370296835899E-003,-1.880927826277912E-003,-9.927278161048889E-001,-4.995007812976837E-002,5.700370296835899E-003,-1.880927826277912E-003,-9.927278161048889E-001,-4.995007812976837E-002,
1.041400000000000E+009,-1.647479832172394E-003,4.165459424257278E-003,-9.808007478713989E-001,-1.111750863492489E-002,-1.647479832172394E-003,4.165459424257278E-003,-9.808007478713989E-001,-1.111750863492489E-002,
1.049766666666667E+009,-4.266398493200541E-003,1.285440474748612E-002,-9.936819076538086E-001,6.876811385154724E-003,-4.266398493200541E-003,1.285440474748612E-002,-9.936819076538086E-001,6.876811385154724E-003,
1.058133333333333E+009,-4.280977591406554E-004,2.028748206794262E-002,-9.897299408912659E-001,2.463022433221340E-002,-4.280977591406554E-004,2.028748206794262E-002,-9.897299408912659E-001,2.463022433221340E-002,
1.066500000000000E+009,8.467852137982845E-003,2.582577988505364E-002,-9.992334246635437E-001,6.236572191119194E-002,8.467852137982845E-003,2.582577988505364E-002,-9.992334246635437E-001,6.236572191119194E-002,
1.074866666666667E+009,1.864444650709629E-002,2.502723783254623E-002,-9.828846454620361E-001,8.071089535951614E-002,1.864444650709629E-002,2.502723783254623E-002,-9.828846454620361E-001,8.071089535951614E-002,
1.083233333333334E+009,2.942528948187828E-002,1.551657728850842E-002,-9.826976656913757E-001,1.024820804595947E-001,2.942528948187828E-002,1.551657728850842E-002,-9.826976656913757E-001,1.024820804595947E-001,
1.091600000000000E+009,3.589814528822899E-002,6.049302872270346E-003,-9.749091863632202E-001,1.246755570173264E-001,3.589814528822899E-002,6.049302872270346E-003,-9.749091863632202E-001,1.246755570173264E-001,
1.099966666666667E+009,3.715816885232925E-002,-7.402586750686169E-003,-9.802355766296387E-001,1.625784635543823E-001,3.715816885232925E-002,-7.402586750686169E-003,-9.802355766296387E-001,1.625784635543823E-001,
1.108333333333334E+009,2.859815023839474E-002,-1.803058385848999E-002,-9.580249190330505E-001,1.663334667682648E-001,2.859815023839474E-002,-1.803058385848999E-002,-9.580249190330505E-001,1.663334667682648E-001,
1.116700000000000E+009,1.599624194204807E-002,-1.836561411619186E-002,-9.610921144485474E-001,2.112211138010025E-001,1.599624194204807E-002,-1.836561411619186E-002,-9.610921144485474E-001,2.112211138010025E-001,
1.125066666666667E+009,2.232817932963371E-003,-1.847593113780022E-002,-9.656028151512146E-001,2.202169150114059E-001,2.232817932963371E-003,-1.847593113780022E-002,-9.656028151512146E-001,2.202169150114059E-001,
1.133433333333334E+009,-8.387735113501549E-003,-6.335738115012646E-003,-9.674884676933289E-001,2.442474663257599E-001,-8.387735113501549E-003,-6.335738115012646E-003,-9.674884676933289E-001,2.442474663257599E-001,
1.141800000000000E+009,-1.147171854972839E-002,6.059234030544758E-003,-9.413716793060303E-001,2.662458419799805E-001,-1.147171854972839E-002,6.059234030544758E-003,-9.413716793060303E-001,2.662458419799805E-001,
1.150166666666667E+009,-7.475945632904768E-003,2.222982048988342E-002,-9.282005429267883E-001,2.968973219394684E-001,-7.475945632904768E-003,2.222982048988342E-002,-9.282005429267883E-001,2.968973219394684E-001,
1.158533333333334E+009,5.017607472836971E-003,3.148318082094193E-002,-9.314710497856140E-001,3.214981257915497E-001,5.017607472836971E-003,3.148318082094193E-002,-9.314710497856140E-001,3.214981257915497E-001,
1.166900000000000E+009,2.290123328566551E-002,3.271547704935074E-002,-9.245525002479553E-001,3.546406328678131E-001,2.290123328566551E-002,3.271547704935074E-002,-9.245525002479553E-001,3.546406328678131E-001,
1.175266666666667E+009,3.853384032845497E-002,2.297455817461014E-002,-9.150247573852539E-001,3.609919846057892E-001,3.853384032845497E-002,2.297455817461014E-002,-9.150247573852539E-001,3.609919846057892E-001,
1.183633333333334E+009,5.060570314526558E-002,8.191890083253384E-003,-9.064834117889404E-001,3.997685909271240E-001,5.060570314526558E-002,8.191890083253384E-003,-9.064834117889404E-001,3.997685909271240E-001,
1.192000000000000E+009,5.278955399990082E-002,-1.216509751975536E-002,-8.965227603912354E-001,4.077278077602387E-001,5.278955399990082E-002,-1.216509751975536E-002,-8.965227603912354E-001,4.077278077602387E-001,
1.200366666666667E+009,4.344326630234718E-002,-2.810614556074143E-002,-8.888545036315918E-001,4.354718923568726E-001,4.344326630234718E-002,-2.810614556074143E-002,-8.888545036315918E-001,4.354718923568726E-001,
1.208733333333334E+009,2.873860672116280E-002,-3.896600753068924E-002,-8.842068314552307E-001,4.527098238468170E-001,2.873860672116280E-002,-3.896600753068924E-002,-8.842068314552307E-001,4.527098238468170E-001,
1.217100000000000E+009,1.031892467290163E-002,-3.633056208491325E-002,-8.696290850639343E-001,4.729434251785278E-001,1.031892467290163E-002,-3.633056208491325E-002,-8.696290850639343E-001,4.729434251785278E-001,
1.225466666666667E+009,-2.219144254922867E-003,-2.807373180985451E-002,-8.468499183654785E-001,5.007101297378540E-001,-2.219144254922867E-003,-2.807373180985451E-002,-8.468499183654785E-001,5.007101297378540E-001,
1.233833333333334E+009,-1.096395310014486E-002,-1.190601382404566E-002,-8.323257565498352E-001,5.192089080810547E-001,-1.096395310014486E-002,-1.190601382404566E-002,-8.323257565498352E-001,5.192089080810547E-001,
1.242200000000000E+009,-9.829672984778881E-003,6.157656665891409E-003,-8.194612264633179E-001,5.321702361106873E-001,-9.829672984778881E-003,6.157656665891409E-003,-8.194612264633179E-001,5.321702361106873E-001,
1.250566666666667E+009,3.045187098905444E-003,1.809254661202431E-002,-7.955558300018311E-001,5.620344281196594E-001,3.045187098905444E-003,1.809254661202431E-002,-7.955558300018311E-001,5.620344281196594E-001,
1.258933333333334E+009,2.038716338574886E-002,2.154599316418171E-002,-8.072177171707153E-001,5.816009640693665E-001,2.038716338574886E-002,2.154599316418171E-002,-8.072177171707153E-001,5.816009640693665E-001,
1.267300000000000E+009,3.834226354956627E-002,1.268778275698423E-002,-7.880257964134216E-001,5.954897999763489E-001,3.834226354956627E-002,1.268778275698423E-002,-7.880257964134216E-001,5.954897999763489E-001,
1.275666666666667E+009,4.956090822815895E-002,-4.891268908977509E-003,-7.562527060508728E-001,6.212906241416931E-001,4.956090822815895E-002,-4.891268908977509E-003,-7.562527060508728E-001,6.212906241416931E-001,
1.284033333333334E+009,5.051508918404579E-002,-2.651453763246536E-002,-7.504611611366272E-001,6.412284374237061E-001,5.051508918404579E-002,-2.651453763246536E-002,-7.504611611366272E-001,6.412284374237061E-001,
1.292400000000000E+009,4.079475253820419E-002,-4.546733200550079E-002,-7.388982772827148E-001,6.571539640426636E-001,4.079475253820419E-002,-4.546733200550079E-002,-7.388982772827148E-001,6.571539640426636E-001,
1.300766666666667E+009,2.315363101661205E-002,-5.609845370054245E-002,-7.162799239158630E-001,6.745334267616272E-001,2.315363101661205E-002,-5.609845370054245E-002,-7.162799239158630E-001,6.745334267616272E-001,
1.309133333333334E+009,1.514185452833772E-003,-5.578231438994408E-002,-7.051761746406555E-001,6.913601756095886E-001,1.514185452833772E-003,-5.578231438994408E-002,-7.051761746406555E-001,6.913601756095886E-001,
1.317500000000000E+009,-1.373647060245276E-002,-4.494137316942215E-002,-6.821399927139282E-001,7.064704895019531E-001,-1.373647060245276E-002,-4.494137316942215E-002,-6.821399927139282E-001,7.064704895019531E-001,
1.325866666666667E+009,-2.134646289050579E-002,-2.566371485590935E-002,-6.687904000282288E-001,7.216528654098511E-001,-2.134646289050579E-002,-2.566371485590935E-002,-6.687904000282288E-001,7.216528654098511E-001,
1.334233333333334E+009,-1.729570887982845E-002,-7.023344747722149E-003,-6.428491473197937E-001,7.440574169158936E-001,-1.729570887982845E-002,-7.023344747722149E-003,-6.428491473197937E-001,7.440574169158936E-001,
1.342600000000000E+009,-5.243203602731228E-003,4.353960510343313E-003,-6.260699033737183E-001,7.631641626358032E-001,-5.243203602731228E-003,4.353960510343313E-003,-6.260699033737183E-001,7.631641626358032E-001,
1.350966666666667E+009,1.236970815807581E-002,6.006211508065462E-003,-5.983375310897827E-001,7.902905344963074E-001,1.236970815807581E-002,6.006211508065462E-003,-5.983375310897827E-001,7.902905344963074E-001,
1.359333333333334E+009,2.842176333069801E-002,-3.126180265098810E-003,-5.872520208358765E-001,7.928326725959778E-001,2.842176333069801E-002,-3.126180265098810E-003,-5.872520208358765E-001,7.928326725959778E-001,
1.367700000000000E+009,3.327348083257675E-002,-2.297115325927734E-002,-5.705492496490479E-001,8.027600646018982E-001,3.327348083257675E-002,-2.297115325927734E-002,-5.705492496490479E-001,8.027600646018982E-001,
1.376066666666667E+009,3.055067732930183E-002,-4.211425781250000E-002,-5.560632944107056E-001,8.206808567047119E-001,3.055067732930183E-002,-4.211425781250000E-002,-5.560632944107056E-001,8.206808567047119E-001,
1.384433333333334E+009,1.494408678263426E-002,-6.091213598847389E-002,-5.318074822425842E-001,8.442896604537964E-001,1.494408678263426E-002,-6.091213598847389E-002,-5.318074822425842E-001,8.442896604537964E-001,
1.392800000000000E+009,-6.561353802680969E-003,-6.648737192153931E-002,-5.172972083091736E-001,8.390712738037109E-001,-6.561353802680969E-003,-6.648737192153931E-002,-5.172972083091736E-001,8.390712738037109E-001,
1.401166666666667E+009,-2.823540754616261E-002,-6.012284383177757E-002,-4.950835406780243E-001,8.591090440750122E-001,-2.823540754616261E-002,-6.012284383177757E-002,-4.950835406780243E-001,8.591090440750122E-001,
1.409533333333334E+009,-4.401781037449837E-002,-4.512315243482590E-002,-4.651162326335907E-001,8.711100816726685E-001,-4.401781037449837E-002,-4.512315243482590E-002,-4.651162326335907E-001,8.711100816726685E-001,
1.417900000000000E+009,-4.882580041885376E-002,-2.037381380796433E-002,-4.527022838592529E-001,8.658496141433716E-001,-4.882580041885376E-002,-2.037381380796433E-002,-4.527022838592529E-001,8.658496141433716E-001,
1.426266666666667E+009,-4.015835374593735E-002,-1.042274059727788E-003,-4.229517281055450E-001,8.931148648262024E-001,-4.015835374593735E-002,-1.042274059727788E-003,-4.229517281055450E-001,8.931148648262024E-001,
1.434633333333334E+009,-2.333087660372257E-002,1.308342348784208E-002,-3.924848735332489E-001,9.042412042617798E-001,-2.333087660372257E-002,1.308342348784208E-002,-3.924848735332489E-001,9.042412042617798E-001,
1.443000000000000E+009,-3.075887216255069E-003,1.560280099511147E-002,-3.773120343685150E-001,9.102960824966431E-001,-3.075887216255069E-003,1.560280099511147E-002,-3.773120343685150E-001,9.102960824966431E-001,
1.451366666666667E+009,1.436906866729260E-002,6.231629289686680E-003,-3.471300005912781E-001,9.161573052406311E-001,1.436906866729260E-002,6.231629289686680E-003,-3.471300005912781E-001,9.161573052406311E-001,
1.459733333333334E+009,2.420819923281670E-002,-1.412507984787226E-002,-3.304168581962585E-001,9.232178330421448E-001,2.420819923281670E-002,-1.412507984787226E-002,-3.304168581962585E-001,9.232178330421448E-001,
