% Version 1.00
%
%freq[Hz],re:Trc1_S11,im:Trc1_S11,re:Trc2_S21,im:Trc2_S21,re:Trc3_S11,im:Trc3_S11,re:Trc4_S21,im:Trc4_S21,
6.900000000000000E+008,-3.214588388800621E-002,5.684220790863037E-002,-4.990879595279694E-001,-8.506047129631043E-001,-3.214588388800621E-002,5.684220790863037E-002,-4.990879595279694E-001,-8.506047129631043E-001,
6.983666666666666E+008,-2.130742371082306E-002,5.818311870098114E-002,-5.259692668914795E-001,-8.427578806877136E-001,-2.130742371082306E-002,5.818311870098114E-002,-5.259692668914795E-001,-8.427578806877136E-001,
7.067333333333334E+008,-1.436085812747479E-002,5.361520126461983E-002,-5.678756833076477E-001,-7.801021933555603E-001,-1.436085812747479E-002,5.361520126461983E-002,-5.678756833076477E-001,-7.801021933555603E-001,
7.151000000000000E+008,-1.305295806378126E-002,4.543158411979675E-002,-5.895311236381531E-001,-7.915598154067993E-001,-1.305295806378126E-002,4.543158411979675E-002,-5.895311236381531E-001,-7.915598154067993E-001,
7.234666666666666E+008,-1.554423850029707E-002,4.059741273522377E-002,-5.995754599571228E-001,-7.760708928108215E-001,-1.554423850029707E-002,4.059741273522377E-002,-5.995754599571228E-001,-7.760708928108215E-001,
7.318333333333334E+008,-2.186890505254269E-002,3.870915621519089E-002,-6.121952533721924E-001,-7.766816616058350E-001,-2.186890505254269E-002,3.870915621519089E-002,-6.121952533721924E-001,-7.766816616058350E-001,
7.402000000000000E+008,-2.764094248414040E-002,3.931954503059387E-002,-6.572214365005493E-001,-7.579236626625061E-001,-2.764094248414040E-002,3.931954503059387E-002,-6.572214365005493E-001,-7.579236626625061E-001,
7.485666666666666E+008,-3.350280225276947E-002,4.590288177132607E-002,-6.599769592285156E-001,-7.560799717903137E-001,-3.350280225276947E-002,4.590288177132607E-002,-6.599769592285156E-001,-7.560799717903137E-001,
7.569333333333334E+008,-3.362815082073212E-002,5.404547974467278E-002,-6.661001443862915E-001,-7.367530465126038E-001,-3.362815082073212E-002,5.404547974467278E-002,-6.661001443862915E-001,-7.367530465126038E-001,
7.653000000000000E+008,-2.794687822461128E-002,6.178968772292137E-002,-6.848553419113159E-001,-7.145858407020569E-001,-2.794687822461128E-002,6.178968772292137E-002,-6.848553419113159E-001,-7.145858407020569E-001,
7.736666666666666E+008,-1.990776881575584E-002,6.838367879390717E-002,-7.151876091957092E-001,-6.901559829711914E-001,-1.990776881575584E-002,6.838367879390717E-002,-7.151876091957092E-001,-6.901559829711914E-001,
7.820333333333334E+008,-9.712484665215015E-003,7.128390669822693E-002,-7.279899716377258E-001,-6.773735880851746E-001,-9.712484665215015E-003,7.128390669822693E-002,-7.279899716377258E-001,-6.773735880851746E-001,
7.904000000000000E+008,1.310092746280134E-003,6.980922073125839E-002,-7.311113476753235E-001,-6.536040306091309E-001,1.310092746280134E-003,6.980922073125839E-002,-7.311113476753235E-001,-6.536040306091309E-001,
7.987666666666666E+008,6.781642325222492E-003,6.508319824934006E-002,-7.708090543746948E-001,-6.367554068565369E-001,6.781642325222492E-003,6.508319824934006E-002,-7.708090543746948E-001,-6.367554068565369E-001,
8.071333333333334E+008,1.035506743937731E-002,5.919720605015755E-002,-7.705819606781006E-001,-6.262086033821106E-001,1.035506743937731E-002,5.919720605015755E-002,-7.705819606781006E-001,-6.262086033821106E-001,
8.155000000000000E+008,5.389896221458912E-003,5.353860557079315E-002,-7.947422266006470E-001,-6.000079512596130E-001,5.389896221458912E-003,5.353860557079315E-002,-7.947422266006470E-001,-6.000079512596130E-001,
8.238666666666666E+008,2.609059680253267E-003,4.925801232457161E-002,-7.969588637351990E-001,-5.707057714462280E-001,2.609059680253267E-003,4.925801232457161E-002,-7.969588637351990E-001,-5.707057714462280E-001,
8.322333333333334E+008,-4.210330080240965E-003,5.021478608250618E-002,-8.155944943428040E-001,-5.539640784263611E-001,-4.210330080240965E-003,5.021478608250618E-002,-8.155944943428040E-001,-5.539640784263611E-001,
8.406000000000000E+008,-8.134482428431511E-003,5.383242666721344E-002,-8.320657610893250E-001,-5.352288484573364E-001,-8.134482428431511E-003,5.383242666721344E-002,-8.320657610893250E-001,-5.352288484573364E-001,
8.489666666666668E+008,-1.127445418387651E-002,6.129387393593788E-002,-8.388633728027344E-001,-5.247677564620972E-001,-1.127445418387651E-002,6.129387393593788E-002,-8.388633728027344E-001,-5.247677564620972E-001,
8.573333333333334E+008,-8.668498136103153E-003,6.882372498512268E-002,-8.573949933052063E-001,-4.827229082584381E-001,-8.668498136103153E-003,6.882372498512268E-002,-8.573949933052063E-001,-4.827229082584381E-001,
8.657000000000000E+008,1.280403230339289E-003,7.584523409605026E-002,-8.724873065948486E-001,-4.594782888889313E-001,1.280403230339289E-003,7.584523409605026E-002,-8.724873065948486E-001,-4.594782888889313E-001,
8.740666666666668E+008,1.022300496697426E-002,7.776367664337158E-002,-8.728612065315247E-001,-4.478166401386261E-001,1.022300496697426E-002,7.776367664337158E-002,-8.728612065315247E-001,-4.478166401386261E-001,
8.824333333333334E+008,2.116772904992104E-002,7.734801620244980E-002,-8.868373632431030E-001,-4.343008995056152E-001,2.116772904992104E-002,7.734801620244980E-002,-8.868373632431030E-001,-4.343008995056152E-001,
8.908000000000000E+008,3.074820525944233E-002,7.202379405498505E-002,-8.884363770484924E-001,-4.035315513610840E-001,3.074820525944233E-002,7.202379405498505E-002,-8.884363770484924E-001,-4.035315513610840E-001,
8.991666666666668E+008,3.545158356428146E-002,6.496527045965195E-002,-9.018862247467041E-001,-3.726097643375397E-001,3.545158356428146E-002,6.496527045965195E-002,-9.018862247467041E-001,-3.726097643375397E-001,
9.075333333333334E+008,3.652259707450867E-002,5.856421217322350E-002,-9.346266984939575E-001,-3.569304645061493E-001,3.652259707450867E-002,5.856421217322350E-002,-9.346266984939575E-001,-3.569304645061493E-001,
9.159000000000000E+008,3.445566818118095E-002,5.560545995831490E-002,-9.406185150146484E-001,-3.286933600902557E-001,3.445566818118095E-002,5.560545995831490E-002,-9.406185150146484E-001,-3.286933600902557E-001,
9.242666666666668E+008,2.987352013587952E-002,5.194343626499176E-002,-9.443573951721191E-001,-3.140470683574677E-001,2.987352013587952E-002,5.194343626499176E-002,-9.443573951721191E-001,-3.140470683574677E-001,
9.326333333333334E+008,2.293489500880241E-002,5.277783796191216E-002,-9.686679840087891E-001,-2.896167933940888E-001,2.293489500880241E-002,5.277783796191216E-002,-9.686679840087891E-001,-2.896167933940888E-001,
9.410000000000000E+008,2.013687603175640E-002,5.715719610452652E-002,-9.595434665679932E-001,-2.592307925224304E-001,2.013687603175640E-002,5.715719610452652E-002,-9.595434665679932E-001,-2.592307925224304E-001,
9.493666666666668E+008,2.022628858685494E-002,6.341689079999924E-002,-9.572786688804627E-001,-2.392862886190414E-001,2.022628858685494E-002,6.341689079999924E-002,-9.572786688804627E-001,-2.392862886190414E-001,
9.577333333333334E+008,2.355420961976051E-002,7.093808054924011E-002,-9.715489745140076E-001,-2.131409645080566E-001,2.355420961976051E-002,7.093808054924011E-002,-9.715489745140076E-001,-2.131409645080566E-001,
9.661000000000000E+008,3.372816368937492E-002,7.718598842620850E-002,-9.685313105583191E-001,-1.935683488845825E-001,3.372816368937492E-002,7.718598842620850E-002,-9.685313105583191E-001,-1.935683488845825E-001,
9.744666666666668E+008,4.311830922961235E-002,7.599294930696487E-002,-9.767070412635803E-001,-1.645056456327438E-001,4.311830922961235E-002,7.599294930696487E-002,-9.767070412635803E-001,-1.645056456327438E-001,
9.828333333333334E+008,5.655414238572121E-002,7.248018682003021E-002,-9.756720662117004E-001,-1.445570588111877E-001,5.655414238572121E-002,7.248018682003021E-002,-9.756720662117004E-001,-1.445570588111877E-001,
9.912000000000000E+008,6.508826464414597E-002,6.527917832136154E-002,-9.765824675559998E-001,-1.181634068489075E-001,6.508826464414597E-002,6.527917832136154E-002,-9.765824675559998E-001,-1.181634068489075E-001,
9.995666666666668E+008,7.185807824134827E-002,5.552706867456436E-002,-9.906180500984192E-001,-8.069113641977310E-002,7.185807824134827E-002,5.552706867456436E-002,-9.906180500984192E-001,-8.069113641977310E-002,
1.007933333333333E+009,7.262568175792694E-002,4.572038725018501E-002,-9.901732802391052E-001,-6.786662340164185E-002,7.262568175792694E-002,4.572038725018501E-002,-9.901732802391052E-001,-6.786662340164185E-002,
1.016300000000000E+009,6.732500344514847E-002,3.962866961956024E-002,-9.939125180244446E-001,-4.114707559347153E-002,6.732500344514847E-002,3.962866961956024E-002,-9.939125180244446E-001,-4.114707559347153E-002,
1.024666666666667E+009,6.018941849470139E-002,3.309915587306023E-002,-9.964287281036377E-001,-7.055184338241816E-003,6.018941849470139E-002,3.309915587306023E-002,-9.964287281036377E-001,-7.055184338241816E-003,
1.033033333333333E+009,5.415530875325203E-002,3.543966263532639E-002,-9.930207729339600E-001,1.052866503596306E-002,5.415530875325203E-002,3.543966263532639E-002,-9.930207729339600E-001,1.052866503596306E-002,
1.041400000000000E+009,4.918977990746498E-002,4.048333689570427E-002,-9.792602658271790E-001,4.728317260742188E-002,4.918977990746498E-002,4.048333689570427E-002,-9.792602658271790E-001,4.728317260742188E-002,
1.049766666666667E+009,4.908652231097221E-002,4.796169325709343E-002,-9.910211563110352E-001,6.955314427614212E-002,4.908652231097221E-002,4.796169325709343E-002,-9.910211563110352E-001,6.955314427614212E-002,
1.058133333333333E+009,5.537154898047447E-002,5.404137820005417E-002,-9.839760661125183E-001,8.850813657045364E-002,5.537154898047447E-002,5.404137820005417E-002,-9.839760661125183E-001,8.850813657045364E-002,
1.066500000000000E+009,6.763961911201477E-002,5.624213069677353E-002,-9.931361079216003E-001,1.267595142126083E-001,6.763961911201477E-002,5.624213069677353E-002,-9.931361079216003E-001,1.267595142126083E-001,
1.074866666666667E+009,7.811428606510162E-002,5.312967672944069E-002,-9.723833799362183E-001,1.430113613605499E-001,7.811428606510162E-002,5.312967672944069E-002,-9.723833799362183E-001,1.430113613605499E-001,
1.083233333333334E+009,9.012371301651001E-002,4.104795679450035E-002,-9.727771878242493E-001,1.667290925979614E-001,9.012371301651001E-002,4.104795679450035E-002,-9.727771878242493E-001,1.667290925979614E-001,
1.091600000000000E+009,9.631640464067459E-002,2.980871498584747E-002,-9.620018005371094E-001,1.886457055807114E-001,9.631640464067459E-002,2.980871498584747E-002,-9.620018005371094E-001,1.886457055807114E-001,
1.099966666666667E+009,9.847278147935867E-002,1.446401700377464E-002,-9.654099941253662E-001,2.256454676389694E-001,9.847278147935867E-002,1.446401700377464E-002,-9.654099941253662E-001,2.256454676389694E-001,
1.108333333333334E+009,8.934707939624786E-002,3.311248729005456E-003,-9.474025964736939E-001,2.311965078115463E-001,8.934707939624786E-002,3.311248729005456E-003,-9.474025964736939E-001,2.311965078115463E-001,
1.116700000000000E+009,7.632635533809662E-002,1.811482012271881E-003,-9.437627792358398E-001,2.756570875644684E-001,7.632635533809662E-002,1.811482012271881E-003,-9.437627792358398E-001,2.756570875644684E-001,
1.125066666666667E+009,6.460630148649216E-002,2.338144695386291E-003,-9.496712684631348E-001,2.835118770599365E-001,6.460630148649216E-002,2.338144695386291E-003,-9.496712684631348E-001,2.835118770599365E-001,
1.133433333333334E+009,5.569595098495483E-002,1.352220214903355E-002,-9.510918259620667E-001,3.124129474163055E-001,5.569595098495483E-002,1.352220214903355E-002,-9.510918259620667E-001,3.124129474163055E-001,
1.141800000000000E+009,5.549773201346397E-002,2.391205914318562E-002,-9.184577465057373E-001,3.310718238353729E-001,5.549773201346397E-002,2.391205914318562E-002,-9.184577465057373E-001,3.310718238353729E-001,
1.150166666666667E+009,6.264927983283997E-002,3.684085607528687E-002,-9.029418826103210E-001,3.618960082530975E-001,6.264927983283997E-002,3.684085607528687E-002,-9.029418826103210E-001,3.618960082530975E-001,
1.158533333333334E+009,7.729415595531464E-002,4.288851469755173E-002,-9.054068326950073E-001,3.860838413238525E-001,7.729415595531464E-002,4.288851469755173E-002,-9.054068326950073E-001,3.860838413238525E-001,
1.166900000000000E+009,9.679713100194931E-002,3.962990641593933E-002,-8.938243985176086E-001,4.203793406486511E-001,9.679713100194931E-002,3.962990641593933E-002,-8.938243985176086E-001,4.203793406486511E-001,
1.175266666666667E+009,1.108618825674057E-001,2.525057457387447E-002,-8.863937258720398E-001,4.253482222557068E-001,1.108618825674057E-001,2.525057457387447E-002,-8.863937258720398E-001,4.253482222557068E-001,
1.183633333333334E+009,1.217757835984230E-001,6.813388783484697E-003,-8.692933917045593E-001,4.620266854763031E-001,1.217757835984230E-001,6.813388783484697E-003,-8.692933917045593E-001,4.620266854763031E-001,
1.192000000000000E+009,1.226143091917038E-001,-1.579644717276096E-002,-8.632694482803345E-001,4.700807332992554E-001,1.226143091917038E-001,-1.579644717276096E-002,-8.632694482803345E-001,4.700807332992554E-001,
1.200366666666667E+009,1.111486181616783E-001,-3.238711878657341E-002,-8.544367551803589E-001,4.968141913414002E-001,1.111486181616783E-001,-3.238711878657341E-002,-8.544367551803589E-001,4.968141913414002E-001,
1.208733333333334E+009,9.581502526998520E-002,-4.241506755352020E-002,-8.508399128913879E-001,5.120964646339417E-001,9.581502526998520E-002,-4.241506755352020E-002,-8.508399128913879E-001,5.120964646339417E-001,
1.217100000000000E+009,7.759711891412735E-002,-4.020552337169647E-002,-8.336915373802185E-001,5.287634134292603E-001,7.759711891412735E-002,-4.020552337169647E-002,-8.336915373802185E-001,5.287634134292603E-001,
1.225466666666667E+009,6.666409224271774E-002,-3.336824104189873E-002,-8.090695738792419E-001,5.616319775581360E-001,6.666409224271774E-002,-3.336824104189873E-002,-8.090695738792419E-001,5.616319775581360E-001,
1.233833333333334E+009,6.000931933522224E-002,-1.770859025418758E-002,-7.910832166671753E-001,5.810725092887878E-001,6.000931933522224E-002,-1.770859025418758E-002,-7.910832166671753E-001,5.810725092887878E-001,
1.242200000000000E+009,6.413996219635010E-002,-2.887476701289415E-003,-7.800999879837036E-001,5.932679772377014E-001,6.413996219635010E-002,-2.887476701289415E-003,-7.800999879837036E-001,5.932679772377014E-001,
1.250566666666667E+009,7.899417728185654E-002,4.920235835015774E-003,-7.505156397819519E-001,6.203304529190064E-001,7.899417728185654E-002,4.920235835015774E-003,-7.505156397819519E-001,6.203304529190064E-001,
1.258933333333334E+009,9.591654688119888E-002,2.894724952057004E-003,-7.560742497444153E-001,6.406423449516296E-001,9.591654688119888E-002,2.894724952057004E-003,-7.560742497444153E-001,6.406423449516296E-001,
1.267300000000000E+009,1.126192435622215E-001,-1.121686212718487E-002,-7.371941208839417E-001,6.544997692108154E-001,1.126192435622215E-001,-1.121686212718487E-002,-7.371941208839417E-001,6.544997692108154E-001,
1.275666666666667E+009,1.210866570472717E-001,-3.247867152094841E-002,-7.023763060569763E-001,6.749166846275330E-001,1.210866570472717E-001,-3.247867152094841E-002,-7.023763060569763E-001,6.749166846275330E-001,
1.284033333333334E+009,1.194175034761429E-001,-5.632515624165535E-002,-6.975297927856445E-001,6.932654380798340E-001,1.194175034761429E-001,-5.632515624165535E-002,-6.975297927856445E-001,6.932654380798340E-001,
1.292400000000000E+009,1.070545166730881E-001,-7.630554586648941E-002,-6.844893693923950E-001,7.082225680351257E-001,1.070545166730881E-001,-7.630554586648941E-002,-6.844893693923950E-001,7.082225680351257E-001,
1.300766666666667E+009,8.745859563350678E-002,-8.541964739561081E-002,-6.605405211448669E-001,7.250525951385498E-001,8.745859563350678E-002,-8.541964739561081E-002,-6.605405211448669E-001,7.250525951385498E-001,
1.309133333333334E+009,6.506072729825974E-002,-8.556900918483734E-002,-6.511056423187256E-001,7.407031655311585E-001,6.506072729825974E-002,-8.556900918483734E-002,-6.511056423187256E-001,7.407031655311585E-001,
1.317500000000000E+009,5.159598961472511E-002,-7.498995214700699E-002,-6.270248293876648E-001,7.598748803138733E-001,5.159598961472511E-002,-7.498995214700699E-002,-6.270248293876648E-001,7.598748803138733E-001,
1.325866666666667E+009,4.486398026347160E-002,-5.696720629930496E-002,-6.100859642028809E-001,7.725735902786255E-001,4.486398026347160E-002,-5.696720629930496E-002,-6.100859642028809E-001,7.725735902786255E-001,
1.334233333333334E+009,5.092879757285118E-002,-4.133561998605728E-002,-5.802937746047974E-001,7.956995964050293E-001,5.092879757285118E-002,-4.133561998605728E-002,-5.802937746047974E-001,7.956995964050293E-001,
1.342600000000000E+009,6.368884444236755E-002,-3.439477458596230E-002,-5.612139105796814E-001,8.119627237319946E-001,6.368884444236755E-002,-3.439477458596230E-002,-5.612139105796814E-001,8.119627237319946E-001,
1.350966666666667E+009,8.006416261196137E-002,-3.823175281286240E-002,-5.259885787963867E-001,8.332986831665039E-001,8.006416261196137E-002,-3.823175281286240E-002,-5.259885787963867E-001,8.332986831665039E-001,
1.359333333333334E+009,9.433398395776749E-002,-5.176070705056191E-002,-5.160062909126282E-001,8.347752094268799E-001,9.433398395776749E-002,-5.176070705056191E-002,-5.160062909126282E-001,8.347752094268799E-001,
1.367700000000000E+009,9.478595107793808E-002,-7.489760965108872E-002,-4.998358488082886E-001,8.448769450187683E-001,9.478595107793808E-002,-7.489760965108872E-002,-4.998358488082886E-001,8.448769450187683E-001,
1.376066666666667E+009,8.786585927009583E-002,-9.621364623308182E-002,-4.811054766178131E-001,8.621426820755005E-001,8.786585927009583E-002,-9.621364623308182E-002,-4.811054766178131E-001,8.621426820755005E-001,
1.384433333333334E+009,6.912303715944290E-002,-1.142803803086281E-001,-4.610585272312164E-001,8.843100666999817E-001,6.912303715944290E-002,-1.142803803086281E-001,-4.610585272312164E-001,8.843100666999817E-001,
1.392800000000000E+009,4.544924199581146E-002,-1.186929792165756E-001,-4.441622793674469E-001,8.753603100776672E-001,4.544924199581146E-002,-1.186929792165756E-001,-4.441622793674469E-001,8.753603100776672E-001,
1.401166666666667E+009,2.461252175271511E-002,-1.118877381086350E-001,-4.237419068813324E-001,8.950754404067993E-001,2.461252175271511E-002,-1.118877381086350E-001,-4.237419068813324E-001,8.950754404067993E-001,
1.409533333333334E+009,9.155461564660072E-003,-9.567578136920929E-002,-3.930011093616486E-001,9.071158766746521E-001,9.155461564660072E-003,-9.567578136920929E-002,-3.930011093616486E-001,9.071158766746521E-001,
1.417900000000000E+009,6.618893239647150E-003,-7.271150499582291E-002,-3.785902261734009E-001,9.022652506828308E-001,6.618893239647150E-003,-7.271150499582291E-002,-3.785902261734009E-001,9.022652506828308E-001,
1.426266666666667E+009,1.613967120647430E-002,-5.722616612911224E-002,-3.472196757793427E-001,9.278479814529419E-001,1.613967120647430E-002,-5.722616612911224E-002,-3.472196757793427E-001,9.278479814529419E-001,
1.434633333333334E+009,3.331315144896507E-002,-4.791080579161644E-002,-3.115133345127106E-001,9.359096884727478E-001,3.331315144896507E-002,-4.791080579161644E-002,-3.115133345127106E-001,9.359096884727478E-001,
1.443000000000000E+009,5.136560276150703E-002,-5.039465799927712E-002,-2.933379411697388E-001,9.405190944671631E-001,5.136560276150703E-002,-5.039465799927712E-002,-2.933379411697388E-001,9.405190944671631E-001,
1.451366666666667E+009,6.544959545135498E-002,-6.481137126684189E-002,-2.619841694831848E-001,9.432392716407776E-001,6.544959545135498E-002,-6.481137126684189E-002,-2.619841694831848E-001,9.432392716407776E-001,
1.459733333333334E+009,6.954712420701981E-002,-8.899867534637451E-002,-2.433589845895767E-001,9.479034543037415E-001,6.954712420701981E-002,-8.899867534637451E-002,-2.433589845895767E-001,9.479034543037415E-001,
