% Version 1.00
%
%freq[Hz],re:Trc1_S11,im:Trc1_S11,re:Trc2_S21,im:Trc2_S21,re:Trc3_S11,im:Trc3_S11,re:Trc4_S21,im:Trc4_S21,
6.900000000000000E+008,-5.747052282094955E-002,1.566546037793160E-002,-5.012798309326172E-001,-8.453904390335083E-001,-5.747052282094955E-002,1.566546037793160E-002,-5.012798309326172E-001,-8.453904390335083E-001,
6.983666666666666E+008,-4.896643012762070E-002,1.654466614127159E-002,-5.229367613792419E-001,-8.388740420341492E-001,-4.896643012762070E-002,1.654466614127159E-002,-5.229367613792419E-001,-8.388740420341492E-001,
7.067333333333334E+008,-4.348722845315933E-002,1.118935737758875E-002,-5.676230192184448E-001,-7.773358821868897E-001,-4.348722845315933E-002,1.118935737758875E-002,-5.676230192184448E-001,-7.773358821868897E-001,
7.151000000000000E+008,-4.414021968841553E-002,3.675590502098203E-003,-5.905008316040039E-001,-7.920007109642029E-001,-4.414021968841553E-002,3.675590502098203E-003,-5.905008316040039E-001,-7.920007109642029E-001,
7.234666666666666E+008,-4.819049686193466E-002,-1.163030974566937E-003,-6.019294261932373E-001,-7.793261408805847E-001,-4.819049686193466E-002,-1.163030974566937E-003,-6.019294261932373E-001,-7.793261408805847E-001,
7.318333333333334E+008,-5.632343515753746E-002,-3.065737430006266E-003,-6.136083006858826E-001,-7.766615748405457E-001,-5.632343515753746E-002,-3.065737430006266E-003,-6.136083006858826E-001,-7.766615748405457E-001,
7.402000000000000E+008,-6.341782957315445E-002,-2.179671078920364E-003,-6.634855866432190E-001,-7.589090466499329E-001,-6.341782957315445E-002,-2.179671078920364E-003,-6.634855866432190E-001,-7.589090466499329E-001,
7.485666666666666E+008,-7.165501266717911E-002,4.703913349658251E-003,-6.581045389175415E-001,-7.539378404617310E-001,-7.165501266717911E-002,4.703913349658251E-003,-6.581045389175415E-001,-7.539378404617310E-001,
7.569333333333334E+008,-7.400755584239960E-002,1.307788118720055E-002,-6.651289463043213E-001,-7.319913506507874E-001,-7.400755584239960E-002,1.307788118720055E-002,-6.651289463043213E-001,-7.319913506507874E-001,
7.653000000000000E+008,-7.018135488033295E-002,2.123788557946682E-002,-6.865316629409790E-001,-7.115994691848755E-001,-7.018135488033295E-002,2.123788557946682E-002,-6.865316629409790E-001,-7.115994691848755E-001,
7.736666666666666E+008,-6.344906240701675E-002,2.709189802408218E-002,-7.169389128684998E-001,-6.863588094711304E-001,-6.344906240701675E-002,2.709189802408218E-002,-7.169389128684998E-001,-6.863588094711304E-001,
7.820333333333334E+008,-5.531097203493118E-002,3.083372488617897E-002,-7.268538475036621E-001,-6.775453090667725E-001,-5.531097203493118E-002,3.083372488617897E-002,-7.268538475036621E-001,-6.775453090667725E-001,
7.904000000000000E+008,-4.674964025616646E-002,2.999987825751305E-002,-7.294999957084656E-001,-6.595631837844849E-001,-4.674964025616646E-002,2.999987825751305E-002,-7.294999957084656E-001,-6.595631837844849E-001,
7.987666666666666E+008,-4.244077205657959E-002,2.461357042193413E-002,-7.658258080482483E-001,-6.329627633094788E-001,-4.244077205657959E-002,2.461357042193413E-002,-7.658258080482483E-001,-6.329627633094788E-001,
8.071333333333334E+008,-4.101082310080528E-002,2.024035342037678E-002,-7.698531746864319E-001,-6.237133741378784E-001,-4.101082310080528E-002,2.024035342037678E-002,-7.698531746864319E-001,-6.237133741378784E-001,
8.155000000000000E+008,-4.684554040431976E-002,1.440436020493507E-002,-7.959431409835815E-001,-6.001706719398499E-001,-4.684554040431976E-002,1.440436020493507E-002,-7.959431409835815E-001,-6.001706719398499E-001,
8.238666666666666E+008,-5.242000892758369E-002,1.170041318982840E-002,-7.956907153129578E-001,-5.684942603111267E-001,-5.242000892758369E-002,1.170041318982840E-002,-7.956907153129578E-001,-5.684942603111267E-001,
8.322333333333334E+008,-6.085349246859551E-002,1.273507066071034E-002,-8.179252147674561E-001,-5.535458326339722E-001,-6.085349246859551E-002,1.273507066071034E-002,-8.179252147674561E-001,-5.535458326339722E-001,
8.406000000000000E+008,-6.722231209278107E-002,1.793451234698296E-002,-8.282678127288818E-001,-5.371239781379700E-001,-6.722231209278107E-002,1.793451234698296E-002,-8.282678127288818E-001,-5.371239781379700E-001,
8.489666666666668E+008,-7.219833880662918E-002,2.557811886072159E-002,-8.381778597831726E-001,-5.225285887718201E-001,-7.219833880662918E-002,2.557811886072159E-002,-8.381778597831726E-001,-5.225285887718201E-001,
8.573333333333334E+008,-7.026807218790054E-002,3.385012224316597E-002,-8.540110588073731E-001,-4.826690256595612E-001,-7.026807218790054E-002,3.385012224316597E-002,-8.540110588073731E-001,-4.826690256595612E-001,
8.657000000000000E+008,-6.375831365585327E-002,4.262264817953110E-002,-8.706895709037781E-001,-4.598040282726288E-001,-6.375831365585327E-002,4.262264817953110E-002,-8.706895709037781E-001,-4.598040282726288E-001,
8.740666666666668E+008,-5.616794899106026E-002,4.555254429578781E-002,-8.699667453765869E-001,-4.509934484958649E-001,-5.616794899106026E-002,4.555254429578781E-002,-8.699667453765869E-001,-4.509934484958649E-001,
8.824333333333334E+008,-4.718304798007011E-002,4.572081565856934E-002,-8.865199089050293E-001,-4.354626834392548E-001,-4.718304798007011E-002,4.572081565856934E-002,-8.865199089050293E-001,-4.354626834392548E-001,
8.908000000000000E+008,-3.871693462133408E-002,4.216938465833664E-002,-8.889967799186707E-001,-4.039642214775085E-001,-3.871693462133408E-002,4.216938465833664E-002,-8.889967799186707E-001,-4.039642214775085E-001,
8.991666666666668E+008,-3.626553714275360E-002,3.598850965499878E-002,-9.019337296485901E-001,-3.742457628250122E-001,-3.626553714275360E-002,3.598850965499878E-002,-9.019337296485901E-001,-3.742457628250122E-001,
9.075333333333334E+008,-3.810626268386841E-002,3.058153018355370E-002,-9.355101585388184E-001,-3.564535081386566E-001,-3.810626268386841E-002,3.058153018355370E-002,-9.355101585388184E-001,-3.564535081386566E-001,
9.159000000000000E+008,-4.192869737744331E-002,3.004555776715279E-002,-9.390605092048645E-001,-3.292201459407806E-001,-4.192869737744331E-002,3.004555776715279E-002,-9.390605092048645E-001,-3.292201459407806E-001,
9.242666666666668E+008,-4.821112751960754E-002,2.800408191978931E-002,-9.450283646583557E-001,-3.121712207794190E-001,-4.821112751960754E-002,2.800408191978931E-002,-9.450283646583557E-001,-3.121712207794190E-001,
9.326333333333334E+008,-5.669815838336945E-002,3.027920611202717E-002,-9.672967195510864E-001,-2.890886664390564E-001,-5.669815838336945E-002,3.027920611202717E-002,-9.672967195510864E-001,-2.890886664390564E-001,
9.410000000000000E+008,-6.096630170941353E-002,3.588480502367020E-002,-9.588950872421265E-001,-2.556564211845398E-001,-6.096630170941353E-002,3.588480502367020E-002,-9.588950872421265E-001,-2.556564211845398E-001,
9.493666666666668E+008,-6.293909996747971E-002,4.388453811407089E-002,-9.548612236976624E-001,-2.374079823493958E-001,-6.293909996747971E-002,4.388453811407089E-002,-9.548612236976624E-001,-2.374079823493958E-001,
9.577333333333334E+008,-6.097909435629845E-002,5.325952172279358E-002,-9.682122468948364E-001,-2.159452140331268E-001,-6.097909435629845E-002,5.325952172279358E-002,-9.682122468948364E-001,-2.159452140331268E-001,
9.661000000000000E+008,-5.361579358577728E-002,6.188350543379784E-002,-9.670722484588623E-001,-1.937193423509598E-001,-5.361579358577728E-002,6.188350543379784E-002,-9.670722484588623E-001,-1.937193423509598E-001,
9.744666666666668E+008,-4.504492506384850E-002,6.275288015604019E-002,-9.770605564117432E-001,-1.673971563577652E-001,-4.504492506384850E-002,6.275288015604019E-002,-9.770605564117432E-001,-1.673971563577652E-001,
9.828333333333334E+008,-3.228045254945755E-002,6.084297224879265E-002,-9.784235358238220E-001,-1.470731496810913E-001,-3.228045254945755E-002,6.084297224879265E-002,-9.784235358238220E-001,-1.470731496810913E-001,
9.912000000000000E+008,-2.579918131232262E-002,5.553125590085983E-002,-9.780735373497009E-001,-1.184235662221909E-001,-2.579918131232262E-002,5.553125590085983E-002,-9.780735373497009E-001,-1.184235662221909E-001,
9.995666666666668E+008,-2.031181380152702E-002,4.864039272069931E-002,-9.971466064453125E-001,-8.073515444993973E-002,-2.031181380152702E-002,4.864039272069931E-002,-9.971466064453125E-001,-8.073515444993973E-002,
1.007933333333333E+009,-2.186916209757328E-002,4.039167612791061E-002,-9.922428131103516E-001,-6.981448084115982E-002,-2.186916209757328E-002,4.039167612791061E-002,-9.922428131103516E-001,-6.981448084115982E-002,
1.016300000000000E+009,-2.828630059957504E-002,3.708881884813309E-002,-9.950081706047058E-001,-3.792675212025642E-002,-2.828630059957504E-002,3.708881884813309E-002,-9.950081706047058E-001,-3.792675212025642E-002,
1.024666666666667E+009,-3.688391670584679E-002,3.271056711673737E-002,-9.938325285911560E-001,-8.197156712412834E-003,-3.688391670584679E-002,3.271056711673737E-002,-9.938325285911560E-001,-8.197156712412834E-003,
1.033033333333333E+009,-4.404854774475098E-002,3.746062889695168E-002,-9.947345852851868E-001,1.187271345406771E-002,-4.404854774475098E-002,3.746062889695168E-002,-9.947345852851868E-001,1.187271345406771E-002,
1.041400000000000E+009,-5.040071159601212E-002,4.517129436135292E-002,-9.803267121315002E-001,5.143488198518753E-002,-5.040071159601212E-002,4.517129436135292E-002,-9.803267121315002E-001,5.143488198518753E-002,
1.049766666666667E+009,-5.126854032278061E-002,5.510995909571648E-002,-9.914761781692505E-001,6.897991150617600E-002,-5.126854032278061E-002,5.510995909571648E-002,-9.914761781692505E-001,6.897991150617600E-002,
1.058133333333333E+009,-4.594630748033524E-002,6.345640867948532E-002,-9.868200421333313E-001,8.618994802236557E-002,-4.594630748033524E-002,6.345640867948532E-002,-9.868200421333313E-001,8.618994802236557E-002,
1.066500000000000E+009,-3.611636534333229E-002,6.989222764968872E-002,-9.935336112976074E-001,1.244877800345421E-001,-3.611636534333229E-002,6.989222764968872E-002,-9.935336112976074E-001,1.244877800345421E-001,
1.074866666666667E+009,-2.510462142527103E-002,6.791420280933380E-002,-9.774294495582581E-001,1.419642865657806E-001,-2.510462142527103E-002,6.791420280933380E-002,-9.774294495582581E-001,1.419642865657806E-001,
1.083233333333334E+009,-1.427902095019817E-002,5.851849913597107E-002,-9.737972021102905E-001,1.658021211624146E-001,-1.427902095019817E-002,5.851849913597107E-002,-9.737972021102905E-001,1.658021211624146E-001,
1.091600000000000E+009,-9.126826189458370E-003,4.984658583998680E-002,-9.666300415992737E-001,1.878425627946854E-001,-9.126826189458370E-003,4.984658583998680E-002,-9.666300415992737E-001,1.878425627946854E-001,
1.099966666666667E+009,-8.834641426801682E-003,3.881779685616493E-002,-9.687517881393433E-001,2.263699918985367E-001,-8.834641426801682E-003,3.881779685616493E-002,-9.687517881393433E-001,2.263699918985367E-001,
1.108333333333334E+009,-1.850493811070919E-002,3.037013486027718E-002,-9.474699497222900E-001,2.305062711238861E-001,-1.850493811070919E-002,3.037013486027718E-002,-9.474699497222900E-001,2.305062711238861E-001,
1.116700000000000E+009,-3.017569519579411E-002,3.190014138817787E-002,-9.449579119682312E-001,2.775105237960815E-001,-3.017569519579411E-002,3.190014138817787E-002,-9.449579119682312E-001,2.775105237960815E-001,
1.125066666666667E+009,-4.424468800425530E-002,3.468729928135872E-002,-9.490656256675720E-001,2.860190272331238E-001,-4.424468800425530E-002,3.468729928135872E-002,-9.490656256675720E-001,2.860190272331238E-001,
1.133433333333334E+009,-5.286864563822746E-002,4.916039854288101E-002,-9.476427435874939E-001,3.107776343822479E-001,-5.286864563822746E-002,4.916039854288101E-002,-9.476427435874939E-001,3.107776343822479E-001,
1.141800000000000E+009,-5.303972959518433E-002,6.270336359739304E-002,-9.173997640609741E-001,3.286710381507874E-001,-5.303972959518433E-002,6.270336359739304E-002,-9.173997640609741E-001,3.286710381507874E-001,
1.150166666666667E+009,-4.703080281615257E-002,7.969162613153458E-002,-9.040868282318115E-001,3.612034916877747E-001,-4.703080281615257E-002,7.969162613153458E-002,-9.040868282318115E-001,3.612034916877747E-001,
1.158533333333334E+009,-3.250268101692200E-002,8.756469190120697E-002,-9.071483612060547E-001,3.852430880069733E-001,-3.250268101692200E-002,8.756469190120697E-002,-9.071483612060547E-001,3.852430880069733E-001,
1.166900000000000E+009,-1.382662914693356E-002,8.814116567373276E-002,-8.949434161186218E-001,4.142934381961823E-001,-1.382662914693356E-002,8.814116567373276E-002,-8.949434161186218E-001,4.142934381961823E-001,
1.175266666666667E+009,2.531063975766301E-003,7.705102115869522E-002,-8.882393836975098E-001,4.201836884021759E-001,2.531063975766301E-003,7.705102115869522E-002,-8.882393836975098E-001,4.201836884021759E-001,
1.183633333333334E+009,1.353973988443613E-002,6.252098828554153E-002,-8.771706223487854E-001,4.645387232303619E-001,1.353973988443613E-002,6.252098828554153E-002,-8.771706223487854E-001,4.645387232303619E-001,
1.192000000000000E+009,1.379634719341993E-002,4.352757334709168E-002,-8.682810068130493E-001,4.702982902526856E-001,1.379634719341993E-002,4.352757334709168E-002,-8.682810068130493E-001,4.702982902526856E-001,
1.200366666666667E+009,2.686263527721167E-003,2.921484597027302E-002,-8.589072823524475E-001,4.994142949581146E-001,2.686263527721167E-003,2.921484597027302E-002,-8.589072823524475E-001,4.994142949581146E-001,
1.208733333333334E+009,-1.296365074813366E-002,2.179661206901074E-002,-8.517097234725952E-001,5.178545117378235E-001,-1.296365074813366E-002,2.179661206901074E-002,-8.517097234725952E-001,5.178545117378235E-001,
1.217100000000000E+009,-3.018242120742798E-002,2.855454385280609E-002,-8.327980041503906E-001,5.375496149063110E-001,-3.018242120742798E-002,2.855454385280609E-002,-8.327980041503906E-001,5.375496149063110E-001,
1.225466666666667E+009,-3.991956636309624E-002,4.070609435439110E-002,-8.079375624656677E-001,5.656597614288330E-001,-3.991956636309624E-002,4.070609435439110E-002,-8.079375624656677E-001,5.656597614288330E-001,
1.233833333333334E+009,-4.624370485544205E-002,5.804513022303581E-002,-7.898490428924561E-001,5.820688605308533E-001,-4.624370485544205E-002,5.804513022303581E-002,-7.898490428924561E-001,5.820688605308533E-001,
1.242200000000000E+009,-4.216193407773972E-002,7.645826041698456E-002,-7.754415869712830E-001,5.934506654739380E-001,-4.216193407773972E-002,7.645826041698456E-002,-7.754415869712830E-001,5.934506654739380E-001,
1.250566666666667E+009,-2.643192559480667E-002,8.751729875802994E-002,-7.496246099472046E-001,6.213799715042114E-001,-2.643192559480667E-002,8.751729875802994E-002,-7.496246099472046E-001,6.213799715042114E-001,
1.258933333333334E+009,-7.026114966720343E-003,8.880139142274857E-002,-7.588925957679749E-001,6.393316984176636E-001,-7.026114966720343E-003,8.880139142274857E-002,-7.588925957679749E-001,6.393316984176636E-001,
1.267300000000000E+009,1.125967502593994E-002,7.869293540716171E-002,-7.414322495460510E-001,6.535975337028503E-001,1.125967502593994E-002,7.869293540716171E-002,-7.414322495460510E-001,6.535975337028503E-001,
1.275666666666667E+009,2.050696685910225E-002,5.998619273304939E-002,-7.081442475318909E-001,6.768992543220520E-001,2.050696685910225E-002,5.998619273304939E-002,-7.081442475318909E-001,6.768992543220520E-001,
1.284033333333334E+009,1.995491236448288E-002,3.947706893086433E-002,-7.008485198020935E-001,6.978946328163147E-001,1.995491236448288E-002,3.947706893086433E-002,-7.008485198020935E-001,6.978946328163147E-001,
1.292400000000000E+009,9.177039377391338E-003,2.340345270931721E-002,-6.873574852943420E-001,7.161707878112793E-001,9.177039377391338E-003,2.340345270931721E-002,-6.873574852943420E-001,7.161707878112793E-001,
1.300766666666667E+009,-9.410301223397255E-003,1.567345112562180E-002,-6.623933911323547E-001,7.333649992942810E-001,-9.410301223397255E-003,1.567345112562180E-002,-6.623933911323547E-001,7.333649992942810E-001,
1.309133333333334E+009,-2.934159338474274E-002,2.058562822639942E-002,-6.481522917747498E-001,7.498545646667481E-001,-2.934159338474274E-002,2.058562822639942E-002,-6.481522917747498E-001,7.498545646667481E-001,
1.317500000000000E+009,-4.245338961482048E-002,3.604575619101524E-002,-6.232400536537170E-001,7.639175653457642E-001,-4.245338961482048E-002,3.604575619101524E-002,-6.232400536537170E-001,7.639175653457642E-001,
1.325866666666667E+009,-4.566038399934769E-002,5.691167339682579E-002,-6.035096645355225E-001,7.778360247612000E-001,-4.566038399934769E-002,5.691167339682579E-002,-6.035096645355225E-001,7.778360247612000E-001,
1.334233333333334E+009,-3.796406835317612E-002,7.566808909177780E-002,-5.778171420097351E-001,7.954463362693787E-001,-3.796406835317612E-002,7.566808909177780E-002,-5.778171420097351E-001,7.954463362693787E-001,
1.342600000000000E+009,-2.320852689445019E-002,8.574829995632172E-002,-5.598651766777039E-001,8.131589889526367E-001,-2.320852689445019E-002,8.574829995632172E-002,-5.598651766777039E-001,8.131589889526367E-001,
1.350966666666667E+009,-4.042466636747122E-003,8.499855548143387E-002,-5.327687263488770E-001,8.374710083007813E-001,-4.042466636747122E-003,8.499855548143387E-002,-5.327687263488770E-001,8.374710083007813E-001,
1.359333333333334E+009,1.088039763271809E-002,7.478682696819305E-002,-5.215283036231995E-001,8.364898562431335E-001,1.088039763271809E-002,7.478682696819305E-002,-5.215283036231995E-001,8.364898562431335E-001,
1.367700000000000E+009,1.506362855434418E-002,5.382546037435532E-002,-5.033922791481018E-001,8.489241003990173E-001,1.506362855434418E-002,5.382546037435532E-002,-5.033922791481018E-001,8.489241003990173E-001,
1.376066666666667E+009,1.092762500047684E-002,3.591980040073395E-002,-4.869498312473297E-001,8.678932785987854E-001,1.092762500047684E-002,3.591980040073395E-002,-4.869498312473297E-001,8.678932785987854E-001,
1.384433333333334E+009,-5.575641058385372E-003,2.065937779843807E-002,-4.619089066982269E-001,8.901292681694031E-001,-5.575641058385372E-003,2.065937779843807E-002,-4.619089066982269E-001,8.901292681694031E-001,
1.392800000000000E+009,-2.638022042810917E-002,1.927765831351280E-002,-4.434655010700226E-001,8.859898447990418E-001,-2.638022042810917E-002,1.927765831351280E-002,-4.434655010700226E-001,8.859898447990418E-001,
1.401166666666667E+009,-4.615169391036034E-002,3.107818402349949E-002,-4.166360199451447E-001,9.039606451988220E-001,-4.615169391036034E-002,3.107818402349949E-002,-4.166360199451447E-001,9.039606451988220E-001,
1.409533333333334E+009,-5.651923269033432E-002,4.832071810960770E-002,-3.843154609203339E-001,9.116001129150391E-001,-5.651923269033432E-002,4.832071810960770E-002,-3.843154609203339E-001,9.116001129150391E-001,
1.417900000000000E+009,-5.632706359028816E-002,7.428292930126190E-002,-3.701403737068176E-001,9.029985070228577E-001,-5.632706359028816E-002,7.428292930126190E-002,-3.701403737068176E-001,9.029985070228577E-001,
1.426266666666667E+009,-4.225892573595047E-002,9.348715841770172E-002,-3.386224508285523E-001,9.286844134330750E-001,-4.225892573595047E-002,9.348715841770172E-002,-3.386224508285523E-001,9.286844134330750E-001,
1.434633333333334E+009,-2.315109781920910E-002,1.050322130322456E-001,-3.078840076923370E-001,9.350845813751221E-001,-2.315109781920910E-002,1.050322130322456E-001,-3.078840076923370E-001,9.350845813751221E-001,
1.443000000000000E+009,-1.006228383630514E-003,1.043114289641380E-001,-2.923585772514343E-001,9.397773146629334E-001,-1.006228383630514E-003,1.043114289641380E-001,-2.923585772514343E-001,9.397773146629334E-001,
1.451366666666667E+009,1.496112439781427E-002,9.226147830486298E-002,-2.646869719028473E-001,9.435184001922607E-001,1.496112439781427E-002,9.226147830486298E-002,-2.646869719028473E-001,9.435184001922607E-001,
1.459733333333334E+009,2.390651218593121E-002,7.152172178030014E-002,-2.464883774518967E-001,9.505545496940613E-001,2.390651218593121E-002,7.152172178030014E-002,-2.464883774518967E-001,9.505545496940613E-001,
