% Version 1.00
%
%freq[Hz],re:Trc1_S11,im:Trc1_S11,re:Trc2_S21,im:Trc2_S21,re:Trc3_S11,im:Trc3_S11,re:Trc4_S21,im:Trc4_S21,
6.900000000000000E+008,-1.666639745235443E-002,1.624719426035881E-002,-4.654340147972107E-001,-8.719425797462463E-001,-1.666639745235443E-002,1.624719426035881E-002,-4.654340147972107E-001,-8.719425797462463E-001,
6.983666666666666E+008,-7.097146939486265E-003,1.695989258587360E-002,-4.894449114799500E-001,-8.637987375259399E-001,-7.097146939486265E-003,1.695989258587360E-002,-4.894449114799500E-001,-8.637987375259399E-001,
7.067333333333334E+008,-4.412732087075710E-004,1.184649858623743E-002,-5.362128019332886E-001,-8.033185601234436E-001,-4.412732087075710E-004,1.184649858623743E-002,-5.362128019332886E-001,-8.033185601234436E-001,
7.151000000000000E+008,5.064036304247566E-005,3.756720107048750E-003,-5.539004206657410E-001,-8.179776072502136E-001,5.064036304247566E-005,3.756720107048750E-003,-5.539004206657410E-001,-8.179776072502136E-001,
7.234666666666666E+008,-3.228386398404837E-003,-2.118221251294017E-003,-5.660988092422485E-001,-8.066489696502686E-001,-3.228386398404837E-003,-2.118221251294017E-003,-5.660988092422485E-001,-8.066489696502686E-001,
7.318333333333334E+008,-1.041367929428816E-002,-5.475586280226708E-003,-5.802026391029358E-001,-8.057831525802612E-001,-1.041367929428816E-002,-5.475586280226708E-003,-5.802026391029358E-001,-8.057831525802612E-001,
7.402000000000000E+008,-1.750513911247253E-002,-5.908924620598555E-003,-6.259642243385315E-001,-7.910321354866028E-001,-1.750513911247253E-002,-5.908924620598555E-003,-6.259642243385315E-001,-7.910321354866028E-001,
7.485666666666666E+008,-2.551226131618023E-002,-8.214967092499137E-004,-6.243472695350647E-001,-7.879686355590820E-001,-2.551226131618023E-002,-8.214967092499137E-004,-6.243472695350647E-001,-7.879686355590820E-001,
7.569333333333334E+008,-2.805276215076447E-002,6.192197091877461E-003,-6.328971982002258E-001,-7.669466137886047E-001,-2.805276215076447E-002,6.192197091877461E-003,-6.328971982002258E-001,-7.669466137886047E-001,
7.653000000000000E+008,-2.460143528878689E-002,1.334295049309731E-002,-6.519654393196106E-001,-7.486534118652344E-001,-2.460143528878689E-002,1.334295049309731E-002,-6.519654393196106E-001,-7.486534118652344E-001,
7.736666666666666E+008,-1.840305700898171E-002,1.946062408387661E-002,-6.857690215110779E-001,-7.240254282951355E-001,-1.840305700898171E-002,1.946062408387661E-002,-6.857690215110779E-001,-7.240254282951355E-001,
7.820333333333334E+008,-1.010215561836958E-002,2.222468331456184E-002,-6.978264451026917E-001,-7.123291492462158E-001,-1.010215561836958E-002,2.222468331456184E-002,-6.978264451026917E-001,-7.123291492462158E-001,
7.904000000000000E+008,-3.775567165575922E-004,2.109760232269764E-002,-7.026860713958740E-001,-6.910906434059143E-001,-3.775567165575922E-004,2.109760232269764E-002,-7.026860713958740E-001,-6.910906434059143E-001,
7.987666666666666E+008,4.345047287642956E-003,1.571086607873440E-002,-7.381085753440857E-001,-6.720044016838074E-001,4.345047287642956E-003,1.571086607873440E-002,-7.381085753440857E-001,-6.720044016838074E-001,
8.071333333333334E+008,7.175945211201906E-003,1.037975493818522E-002,-7.428297996520996E-001,-6.605922579765320E-001,7.175945211201906E-003,1.037975493818522E-002,-7.428297996520996E-001,-6.605922579765320E-001,
8.155000000000000E+008,1.656988984905183E-003,3.611661959439516E-003,-7.668069005012512E-001,-6.406460404396057E-001,1.656988984905183E-003,3.611661959439516E-003,-7.668069005012512E-001,-6.406460404396057E-001,
8.238666666666666E+008,-2.901547355577350E-003,-8.187903440557420E-004,-7.686896920204163E-001,-6.118556857109070E-001,-2.901547355577350E-003,-8.187903440557420E-004,-7.686896920204163E-001,-6.118556857109070E-001,
8.322333333333334E+008,-1.088970061391592E-002,-1.051488565281034E-003,-7.911712527275085E-001,-5.939108133316040E-001,-1.088970061391592E-002,-1.051488565281034E-003,-7.911712527275085E-001,-5.939108133316040E-001,
8.406000000000000E+008,-1.795133948326111E-002,2.554496750235558E-003,-8.024197220802307E-001,-5.823358893394470E-001,-1.795133948326111E-002,2.554496750235558E-003,-8.024197220802307E-001,-5.823358893394470E-001,
8.489666666666668E+008,-2.269237861037254E-002,8.886174298822880E-003,-8.134984970092773E-001,-5.680810213088989E-001,-2.269237861037254E-002,8.886174298822880E-003,-8.134984970092773E-001,-5.680810213088989E-001,
8.573333333333334E+008,-2.192729711532593E-002,1.673510670661926E-002,-8.327851295471191E-001,-5.286431908607483E-001,-2.192729711532593E-002,1.673510670661926E-002,-8.327851295471191E-001,-5.286431908607483E-001,
8.657000000000000E+008,-1.571204885840416E-002,2.346032112836838E-002,-8.507024049758911E-001,-5.094959139823914E-001,-1.571204885840416E-002,2.346032112836838E-002,-8.507024049758911E-001,-5.094959139823914E-001,
8.740666666666668E+008,-8.854565210640431E-003,2.663312852382660E-002,-8.490036725997925E-001,-4.979001581668854E-001,-8.854565210640431E-003,2.663312852382660E-002,-8.490036725997925E-001,-4.979001581668854E-001,
8.824333333333334E+008,5.094585940241814E-004,2.650273218750954E-002,-8.674608469009399E-001,-4.837875366210938E-001,5.094585940241814E-004,2.650273218750954E-002,-8.674608469009399E-001,-4.837875366210938E-001,
8.908000000000000E+008,8.950317278504372E-003,2.218408696353436E-002,-8.691020011901856E-001,-4.520489275455475E-001,8.950317278504372E-003,2.218408696353436E-002,-8.691020011901856E-001,-4.520489275455475E-001,
8.991666666666668E+008,1.257587317377329E-002,1.575466990470886E-002,-8.848570585250855E-001,-4.258029758930206E-001,1.257587317377329E-002,1.575466990470886E-002,-8.848570585250855E-001,-4.258029758930206E-001,
9.075333333333334E+008,1.222153380513191E-002,8.840304799377918E-003,-9.156064391136169E-001,-4.090954959392548E-001,1.222153380513191E-002,8.840304799377918E-003,-9.156064391136169E-001,-4.090954959392548E-001,
9.159000000000000E+008,8.648925460875034E-003,6.115719676017761E-003,-9.220192432403565E-001,-3.805083632469177E-001,8.648925460875034E-003,6.115719676017761E-003,-9.220192432403565E-001,-3.805083632469177E-001,
9.242666666666668E+008,2.757270354777575E-003,2.787564648315311E-003,-9.282767176628113E-001,-3.668565154075623E-001,2.757270354777575E-003,2.787564648315311E-003,-9.282767176628113E-001,-3.668565154075623E-001,
9.326333333333334E+008,-5.785327870398760E-003,3.437671810388565E-003,-9.497313499450684E-001,-3.445162177085877E-001,-5.785327870398760E-003,3.437671810388565E-003,-9.497313499450684E-001,-3.445162177085877E-001,
9.410000000000000E+008,-1.079548988491297E-002,7.767742965370417E-003,-9.444273710250855E-001,-3.118278980255127E-001,-1.079548988491297E-002,7.767742965370417E-003,-9.444273710250855E-001,-3.118278980255127E-001,
9.493666666666668E+008,-1.360700931400061E-002,1.426880341023207E-002,-9.440085291862488E-001,-2.944455742835999E-001,-1.360700931400061E-002,1.426880341023207E-002,-9.440085291862488E-001,-2.944455742835999E-001,
9.577333333333334E+008,-1.256999000906944E-002,2.306868135929108E-002,-9.607169628143311E-001,-2.720354795455933E-001,-1.256999000906944E-002,2.306868135929108E-002,-9.607169628143311E-001,-2.720354795455933E-001,
9.661000000000000E+008,-6.041259504854679E-003,3.033119067549706E-002,-9.609993696212769E-001,-2.481210529804230E-001,-6.041259504854679E-003,3.033119067549706E-002,-9.609993696212769E-001,-2.481210529804230E-001,
9.744666666666668E+008,1.552933361381292E-003,3.183349967002869E-002,-9.680257439613342E-001,-2.247659415006638E-001,1.552933361381292E-003,3.183349967002869E-002,-9.680257439613342E-001,-2.247659415006638E-001,
9.828333333333334E+008,1.416210550814867E-002,2.976774238049984E-002,-9.719118475914002E-001,-2.039933800697327E-001,1.416210550814867E-002,2.976774238049984E-002,-9.719118475914002E-001,-2.039933800697327E-001,
9.912000000000000E+008,2.129091508686543E-002,2.397590316832066E-002,-9.728826284408569E-001,-1.766211539506912E-001,2.129091508686543E-002,2.397590316832066E-002,-9.728826284408569E-001,-1.766211539506912E-001,
9.995666666666668E+008,2.753664366900921E-002,1.612000912427902E-002,-9.904726743698120E-001,-1.400171220302582E-001,2.753664366900921E-002,1.612000912427902E-002,-9.904726743698120E-001,-1.400171220302582E-001,
1.007933333333333E+009,2.729137241840363E-002,7.107834331691265E-003,-9.885037541389465E-001,-1.258335411548615E-001,2.729137241840363E-002,7.107834331691265E-003,-9.885037541389465E-001,-1.258335411548615E-001,
1.016300000000000E+009,2.123787254095078E-002,1.362560782581568E-003,-9.915649294853210E-001,-9.929777681827545E-002,2.123787254095078E-002,1.362560782581568E-003,-9.915649294853210E-001,-9.929777681827545E-002,
1.024666666666667E+009,1.351703051477671E-002,-4.901580046862364E-003,-9.931897521018982E-001,-6.744797527790070E-002,1.351703051477671E-002,-4.901580046862364E-003,-9.931897521018982E-001,-6.744797527790070E-002,
1.033033333333333E+009,5.639621056616306E-003,-1.971913501620293E-003,-9.935166835784912E-001,-4.925616830587387E-002,5.639621056616306E-003,-1.971913501620293E-003,-9.935166835784912E-001,-4.925616830587387E-002,
1.041400000000000E+009,-1.690211473032832E-003,4.057976417243481E-003,-9.813892841339111E-001,-1.071815285831690E-002,-1.690211473032832E-003,4.057976417243481E-003,-9.813892841339111E-001,-1.071815285831690E-002,
1.049766666666667E+009,-4.290105774998665E-003,1.276569347828627E-002,-9.944788217544556E-001,7.941730320453644E-003,-4.290105774998665E-003,1.276569347828627E-002,-9.944788217544556E-001,7.941730320453644E-003,
1.058133333333333E+009,-4.541773814707995E-004,2.018008567392826E-002,-9.906169772148132E-001,2.533142454922199E-002,-4.541773814707995E-004,2.018008567392826E-002,-9.906169772148132E-001,2.533142454922199E-002,
1.066500000000000E+009,8.519455790519714E-003,2.569704502820969E-002,-1.000102281570435E+000,6.292534619569778E-002,8.519455790519714E-003,2.569704502820969E-002,-1.000102281570435E+000,6.292534619569778E-002,
1.074866666666667E+009,1.876276917755604E-002,2.487705834209919E-002,-9.834534525871277E-001,8.205404132604599E-002,1.876276917755604E-002,2.487705834209919E-002,-9.834534525871277E-001,8.205404132604599E-002,
1.083233333333334E+009,2.957171574234963E-002,1.532373297959566E-002,-9.832658171653748E-001,1.033126488327980E-001,2.957171574234963E-002,1.532373297959566E-002,-9.832658171653748E-001,1.033126488327980E-001,
1.091600000000000E+009,3.602478280663490E-002,5.883491132408381E-003,-9.756211042404175E-001,1.253942251205444E-001,3.602478280663490E-002,5.883491132408381E-003,-9.756211042404175E-001,1.253942251205444E-001,
1.099966666666667E+009,3.718854486942291E-002,-7.523722015321255E-003,-9.808017015457153E-001,1.630811691284180E-001,3.718854486942291E-002,-7.523722015321255E-003,-9.808017015457153E-001,1.630811691284180E-001,
1.108333333333334E+009,2.859857678413391E-002,-1.816657744348049E-002,-9.586735367774963E-001,1.672952622175217E-001,2.859857678413391E-002,-1.816657744348049E-002,-9.586735367774963E-001,1.672952622175217E-001,
1.116700000000000E+009,1.590922474861145E-002,-1.852176152169704E-002,-9.610924720764160E-001,2.118803411722183E-001,1.590922474861145E-002,-1.852176152169704E-002,-9.610924720764160E-001,2.118803411722183E-001,
1.125066666666667E+009,2.145274775102735E-003,-1.858210004866123E-002,-9.663559198379517E-001,2.211215645074844E-001,2.145274775102735E-003,-1.858210004866123E-002,-9.663559198379517E-001,2.211215645074844E-001,
1.133433333333334E+009,-8.541188202798367E-003,-6.359802093356848E-003,-9.678398966789246E-001,2.452729791402817E-001,-8.541188202798367E-003,-6.359802093356848E-003,-9.678398966789246E-001,2.452729791402817E-001,
1.141800000000000E+009,-1.157076656818390E-002,6.042756140232086E-003,-9.416237473487854E-001,2.665135264396668E-001,-1.157076656818390E-002,6.042756140232086E-003,-9.416237473487854E-001,2.665135264396668E-001,
1.150166666666667E+009,-7.547949906438589E-003,2.229953929781914E-002,-9.280684590339661E-001,2.979726493358612E-001,-7.547949906438589E-003,2.229953929781914E-002,-9.280684590339661E-001,2.979726493358612E-001,
1.158533333333334E+009,4.904146771878004E-003,3.149617463350296E-002,-9.320473670959473E-001,3.224167823791504E-001,4.904146771878004E-003,3.149617463350296E-002,-9.320473670959473E-001,3.224167823791504E-001,
1.166900000000000E+009,2.294750325381756E-002,3.269678726792336E-002,-9.252282381057739E-001,3.554764986038208E-001,2.294750325381756E-002,3.269678726792336E-002,-9.252282381057739E-001,3.554764986038208E-001,
1.175266666666667E+009,3.864817693829536E-002,2.293866686522961E-002,-9.160096049308777E-001,3.617452085018158E-001,3.864817693829536E-002,2.293866686522961E-002,-9.160096049308777E-001,3.617452085018158E-001,
1.183633333333334E+009,5.075105279684067E-002,8.029079064726830E-003,-9.069142937660217E-001,4.005388915538788E-001,5.075105279684067E-002,8.029079064726830E-003,-9.069142937660217E-001,4.005388915538788E-001,
1.192000000000000E+009,5.294286832213402E-002,-1.235338486731052E-002,-8.969432115554810E-001,4.083153009414673E-001,5.294286832213402E-002,-1.235338486731052E-002,-8.969432115554810E-001,4.083153009414673E-001,
1.200366666666667E+009,4.348153248429298E-002,-2.827069535851479E-002,-8.895211219787598E-001,4.364206790924072E-001,4.348153248429298E-002,-2.827069535851479E-002,-8.895211219787598E-001,4.364206790924072E-001,
1.208733333333334E+009,2.869219891726971E-002,-3.917821124196053E-002,-8.845034241676331E-001,4.531529247760773E-001,2.869219891726971E-002,-3.917821124196053E-002,-8.845034241676331E-001,4.531529247760773E-001,
1.217100000000000E+009,1.018424145877361E-002,-3.645709902048111E-002,-8.702168464660645E-001,4.736401736736298E-001,1.018424145877361E-002,-3.645709902048111E-002,-8.702168464660645E-001,4.736401736736298E-001,
1.225466666666667E+009,-2.410941524431109E-003,-2.809680439531803E-002,-8.472648859024048E-001,5.016407370567322E-001,-2.410941524431109E-003,-2.809680439531803E-002,-8.472648859024048E-001,5.016407370567322E-001,
1.233833333333334E+009,-1.117995753884316E-002,-1.185755245387554E-002,-8.329799175262451E-001,5.201858282089233E-001,-1.117995753884316E-002,-1.185755245387554E-002,-8.329799175262451E-001,5.201858282089233E-001,
1.242200000000000E+009,-9.936755523085594E-003,6.238217465579510E-003,-8.199838399887085E-001,5.329869985580444E-001,-9.936755523085594E-003,6.238217465579510E-003,-8.199838399887085E-001,5.329869985580444E-001,
1.250566666666667E+009,3.024478210136294E-003,1.817770116031170E-002,-7.961328029632568E-001,5.630211830139160E-001,3.024478210136294E-003,1.817770116031170E-002,-7.961328029632568E-001,5.630211830139160E-001,
1.258933333333334E+009,2.043454535305500E-002,2.158081345260143E-002,-8.074877262115479E-001,5.824702978134155E-001,2.043454535305500E-002,2.158081345260143E-002,-8.074877262115479E-001,5.824702978134155E-001,
1.267300000000000E+009,3.842538595199585E-002,1.260886993259192E-002,-7.881997823715210E-001,5.964770913124085E-001,3.842538595199585E-002,1.260886993259192E-002,-7.881997823715210E-001,5.964770913124085E-001,
1.275666666666667E+009,4.964126273989677E-002,-5.024342332035303E-003,-7.563752532005310E-001,6.219913363456726E-001,4.964126273989677E-002,-5.024342332035303E-003,-7.563752532005310E-001,6.219913363456726E-001,
1.284033333333334E+009,5.061000585556030E-002,-2.682488597929478E-002,-7.504246830940247E-001,6.426975131034851E-001,5.061000585556030E-002,-2.682488597929478E-002,-7.504246830940247E-001,6.426975131034851E-001,
1.292400000000000E+009,4.085483402013779E-002,-4.577677696943283E-002,-7.394221425056458E-001,6.585956811904907E-001,4.085483402013779E-002,-4.577677696943283E-002,-7.394221425056458E-001,6.585956811904907E-001,
1.300766666666667E+009,2.306108549237251E-002,-5.627929791808128E-002,-7.165465950965881E-001,6.753332614898682E-001,2.306108549237251E-002,-5.627929791808128E-002,-7.165465950965881E-001,6.753332614898682E-001,
1.309133333333334E+009,1.307571306824684E-003,-5.588779598474503E-002,-7.055020928382874E-001,6.924901008605957E-001,1.307571306824684E-003,-5.588779598474503E-002,-7.055020928382874E-001,6.924901008605957E-001,
1.317500000000000E+009,-1.391417812556028E-002,-4.495751112699509E-002,-6.824306845664978E-001,7.081915140151978E-001,-1.391417812556028E-002,-4.495751112699509E-002,-6.824306845664978E-001,7.081915140151978E-001,
1.325866666666667E+009,-2.152492478489876E-002,-2.552617900073528E-002,-6.689098477363586E-001,7.227147221565247E-001,-2.152492478489876E-002,-2.552617900073528E-002,-6.689098477363586E-001,7.227147221565247E-001,
1.334233333333334E+009,-1.740328781306744E-002,-6.881891749799252E-003,-6.427782773971558E-001,7.450253367424011E-001,-1.740328781306744E-002,-6.881891749799252E-003,-6.427782773971558E-001,7.450253367424011E-001,
1.342600000000000E+009,-5.277723073959351E-003,4.481420852243900E-003,-6.262560486793518E-001,7.643481492996216E-001,-5.277723073959351E-003,4.481420852243900E-003,-6.262560486793518E-001,7.643481492996216E-001,
1.350966666666667E+009,1.244245935231447E-002,6.065577734261751E-003,-5.986165404319763E-001,7.915542721748352E-001,1.244245935231447E-002,6.065577734261751E-003,-5.986165404319763E-001,7.915542721748352E-001,
1.359333333333334E+009,2.846904471516609E-002,-3.221211954951286E-003,-5.872334837913513E-001,7.941809892654419E-001,2.846904471516609E-002,-3.221211954951286E-003,-5.872334837913513E-001,7.941809892654419E-001,
1.367700000000000E+009,3.335115686058998E-002,-2.312473580241203E-002,-5.704910755157471E-001,8.038687109947205E-001,3.335115686058998E-002,-2.312473580241203E-002,-5.704910755157471E-001,8.038687109947205E-001,
1.376066666666667E+009,3.055980987846851E-002,-4.235143959522247E-002,-5.559367537498474E-001,8.219509720802307E-001,3.055980987846851E-002,-4.235143959522247E-002,-5.559367537498474E-001,8.219509720802307E-001,
1.384433333333334E+009,1.487489789724350E-002,-6.116873398423195E-002,-5.320888161659241E-001,8.452301025390625E-001,1.487489789724350E-002,-6.116873398423195E-002,-5.320888161659241E-001,8.452301025390625E-001,
1.392800000000000E+009,-6.747968960553408E-003,-6.671109795570374E-002,-5.166776180267334E-001,8.399891853332520E-001,-6.747968960553408E-003,-6.671109795570374E-002,-5.166776180267334E-001,8.399891853332520E-001,
1.401166666666667E+009,-2.843241021037102E-002,-6.021448224782944E-002,-4.952513873577118E-001,8.601692914962769E-001,-2.843241021037102E-002,-6.021448224782944E-002,-4.952513873577118E-001,8.601692914962769E-001,
1.409533333333334E+009,-4.421873763203621E-002,-4.505243152379990E-002,-4.648936986923218E-001,8.721858263015747E-001,-4.421873763203621E-002,-4.505243152379990E-002,-4.648936986923218E-001,8.721858263015747E-001,
1.417900000000000E+009,-4.897022619843483E-002,-2.021935209631920E-002,-4.529878497123718E-001,8.672053813934326E-001,-4.897022619843483E-002,-2.021935209631920E-002,-4.529878497123718E-001,8.672053813934326E-001,
1.426266666666667E+009,-4.017946496605873E-002,-8.491532062180340E-004,-4.227487444877625E-001,8.940238356590271E-001,-4.017946496605873E-002,-8.491532062180340E-004,-4.227487444877625E-001,8.940238356590271E-001,
1.434633333333334E+009,-2.333654649555683E-002,1.333292294293642E-002,-3.923445641994476E-001,9.056333303451538E-001,-2.333654649555683E-002,1.333292294293642E-002,-3.923445641994476E-001,9.056333303451538E-001,
1.443000000000000E+009,-2.968002809211612E-003,1.577720791101456E-002,-3.773752748966217E-001,9.117832779884338E-001,-2.968002809211612E-003,1.577720791101456E-002,-3.773752748966217E-001,9.117832779884338E-001,
1.451366666666667E+009,1.436212938278914E-002,6.195163819938898E-003,-3.467289209365845E-001,9.176511764526367E-001,1.436212938278914E-002,6.195163819938898E-003,-3.467289209365845E-001,9.176511764526367E-001,
1.459733333333334E+009,2.419086918234825E-002,-1.424814667552710E-002,-3.299197256565094E-001,9.240313768386841E-001,2.419086918234825E-002,-1.424814667552710E-002,-3.299197256565094E-001,9.240313768386841E-001,
