% Version 1.00
%
%freq[Hz],re:Trc1_S11,im:Trc1_S11,re:Trc2_S21,im:Trc2_S21,re:Trc3_S11,im:Trc3_S11,re:Trc4_S21,im:Trc4_S21,
6.900000000000000E+008,-3.157220780849457E-002,5.707218497991562E-002,-5.020373463630676E-001,-8.479830026626587E-001,-3.157220780849457E-002,5.707218497991562E-002,-5.020373463630676E-001,-8.479830026626587E-001,
6.983666666666666E+008,-2.148099057376385E-002,5.763858929276466E-002,-5.218954682350159E-001,-8.393092751502991E-001,-2.148099057376385E-002,5.763858929276466E-002,-5.218954682350159E-001,-8.393092751502991E-001,
7.067333333333334E+008,-1.415152475237846E-002,5.298682674765587E-002,-5.692939758300781E-001,-7.784836888313294E-001,-1.415152475237846E-002,5.298682674765587E-002,-5.692939758300781E-001,-7.784836888313294E-001,
7.151000000000000E+008,-1.312717050313950E-002,4.566234722733498E-002,-5.888544917106628E-001,-7.916716337203980E-001,-1.312717050313950E-002,4.566234722733498E-002,-5.888544917106628E-001,-7.916716337203980E-001,
7.234666666666666E+008,-1.565378159284592E-002,4.071430861949921E-002,-5.992749333381653E-001,-7.784640192985535E-001,-1.565378159284592E-002,4.071430861949921E-002,-5.992749333381653E-001,-7.784640192985535E-001,
7.318333333333334E+008,-2.187732793390751E-002,3.890271484851837E-002,-6.149836182594299E-001,-7.789392471313477E-001,-2.187732793390751E-002,3.890271484851837E-002,-6.149836182594299E-001,-7.789392471313477E-001,
7.402000000000000E+008,-2.743050269782543E-002,3.961517661809921E-002,-6.604208350181580E-001,-7.614666223526001E-001,-2.743050269782543E-002,3.961517661809921E-002,-6.604208350181580E-001,-7.614666223526001E-001,
7.485666666666666E+008,-3.348105028271675E-002,4.606702551245689E-002,-6.579912304878235E-001,-7.551003098487854E-001,-3.348105028271675E-002,4.606702551245689E-002,-6.579912304878235E-001,-7.551003098487854E-001,
7.569333333333334E+008,-3.371288254857063E-002,5.414559692144394E-002,-6.671814322471619E-001,-7.357674241065979E-001,-3.371288254857063E-002,5.414559692144394E-002,-6.671814322471619E-001,-7.357674241065979E-001,
7.653000000000000E+008,-2.759073302149773E-002,6.187383458018303E-002,-6.831491589546204E-001,-7.168834805488586E-001,-2.759073302149773E-002,6.187383458018303E-002,-6.831491589546204E-001,-7.168834805488586E-001,
7.736666666666666E+008,-2.021514251828194E-002,6.800057739019394E-002,-7.162857055664063E-001,-6.877419948577881E-001,-2.021514251828194E-002,6.800057739019394E-002,-7.162857055664063E-001,-6.877419948577881E-001,
7.820333333333334E+008,-1.024421956390142E-002,7.079626619815826E-002,-7.281534075737000E-001,-6.778559088706970E-001,-1.024421956390142E-002,7.079626619815826E-002,-7.281534075737000E-001,-6.778559088706970E-001,
7.904000000000000E+008,1.160038169473410E-003,6.968318670988083E-002,-7.326471805572510E-001,-6.546484827995300E-001,1.160038169473410E-003,6.968318670988083E-002,-7.326471805572510E-001,-6.546484827995300E-001,
7.987666666666666E+008,6.542778108268976E-003,6.440058350563049E-002,-7.669540643692017E-001,-6.353346705436707E-001,6.542778108268976E-003,6.440058350563049E-002,-7.669540643692017E-001,-6.353346705436707E-001,
8.071333333333334E+008,1.065452583134174E-002,5.931982398033142E-002,-7.722279429435730E-001,-6.221891641616821E-001,1.065452583134174E-002,5.931982398033142E-002,-7.722279429435730E-001,-6.221891641616821E-001,
8.155000000000000E+008,5.450113676488400E-003,5.350273847579956E-002,-7.942010164260864E-001,-6.015799045562744E-001,5.450113676488400E-003,5.350273847579956E-002,-7.942010164260864E-001,-6.015799045562744E-001,
8.238666666666666E+008,2.875634701922536E-003,4.926856607198715E-002,-7.969714403152466E-001,-5.710088610649109E-001,2.875634701922536E-003,4.926856607198715E-002,-7.969714403152466E-001,-5.710088610649109E-001,
8.322333333333334E+008,-3.896652255207300E-003,5.006994679570198E-002,-8.184389472007752E-001,-5.507742166519165E-001,-3.896652255207300E-003,5.006994679570198E-002,-8.184389472007752E-001,-5.507742166519165E-001,
8.406000000000000E+008,-8.378298021852970E-003,5.389903858304024E-002,-8.308559656143189E-001,-5.393407344818115E-001,-8.378298021852970E-003,5.389903858304024E-002,-8.308559656143189E-001,-5.393407344818115E-001,
8.489666666666668E+008,-1.101682893931866E-002,6.149736791849136E-002,-8.405025005340576E-001,-5.234793424606323E-001,-1.101682893931866E-002,6.149736791849136E-002,-8.405025005340576E-001,-5.234793424606323E-001,
8.573333333333334E+008,-8.236853405833244E-003,6.886415183544159E-002,-8.576208353042603E-001,-4.842715859413147E-001,-8.236853405833244E-003,6.886415183544159E-002,-8.576208353042603E-001,-4.842715859413147E-001,
8.657000000000000E+008,1.439858926460147E-003,7.554343342781067E-002,-8.730264306068420E-001,-4.620200693607330E-001,1.439858926460147E-003,7.554343342781067E-002,-8.730264306068420E-001,-4.620200693607330E-001,
8.740666666666668E+008,1.027627382427454E-002,7.806763797998428E-002,-8.706564307212830E-001,-4.490071237087250E-001,1.027627382427454E-002,7.806763797998428E-002,-8.706564307212830E-001,-4.490071237087250E-001,
8.824333333333334E+008,2.101358585059643E-002,7.728613168001175E-002,-8.877912759780884E-001,-4.350636005401611E-001,2.101358585059643E-002,7.728613168001175E-002,-8.877912759780884E-001,-4.350636005401611E-001,
8.908000000000000E+008,3.090164996683598E-002,7.206575572490692E-002,-8.872675895690918E-001,-4.042126238346100E-001,3.090164996683598E-002,7.206575572490692E-002,-8.872675895690918E-001,-4.042126238346100E-001,
8.991666666666668E+008,3.541597723960877E-002,6.512254476547241E-002,-9.014579057693481E-001,-3.758268356323242E-001,3.541597723960877E-002,6.512254476547241E-002,-9.014579057693481E-001,-3.758268356323242E-001,
9.075333333333334E+008,3.684779629111290E-002,5.830697715282440E-002,-9.325356483459473E-001,-3.556272089481354E-001,3.684779629111290E-002,5.830697715282440E-002,-9.325356483459473E-001,-3.556272089481354E-001,
9.159000000000000E+008,3.446914628148079E-002,5.556910112500191E-002,-9.396819472312927E-001,-3.294826447963715E-001,3.446914628148079E-002,5.556910112500191E-002,-9.396819472312927E-001,-3.294826447963715E-001,
9.242666666666668E+008,3.006430901587009E-002,5.218095704913139E-002,-9.445794224739075E-001,-3.138352036476135E-001,3.006430901587009E-002,5.218095704913139E-002,-9.445794224739075E-001,-3.138352036476135E-001,
9.326333333333334E+008,2.321258001029491E-002,5.279203131794930E-002,-9.648596644401550E-001,-2.884898781776428E-001,2.321258001029491E-002,5.279203131794930E-002,-9.648596644401550E-001,-2.884898781776428E-001,
9.410000000000000E+008,2.040613070130348E-002,5.723718553781509E-002,-9.606193900108337E-001,-2.572497427463532E-001,2.040613070130348E-002,5.723718553781509E-002,-9.606193900108337E-001,-2.572497427463532E-001,
9.493666666666668E+008,2.035782672464848E-002,6.340570747852325E-002,-9.570579528808594E-001,-2.368064522743225E-001,2.035782672464848E-002,6.340570747852325E-002,-9.570579528808594E-001,-2.368064522743225E-001,
9.577333333333334E+008,2.411327883601189E-002,7.101592421531677E-002,-9.720489978790283E-001,-2.146519422531128E-001,2.411327883601189E-002,7.101592421531677E-002,-9.720489978790283E-001,-2.146519422531128E-001,
9.661000000000000E+008,3.409873321652412E-002,7.698868960142136E-002,-9.705604314804077E-001,-1.885681599378586E-001,3.409873321652412E-002,7.698868960142136E-002,-9.705604314804077E-001,-1.885681599378586E-001,
9.744666666666668E+008,4.296902939677239E-002,7.620269805192947E-002,-9.754969477653503E-001,-1.662957072257996E-001,4.296902939677239E-002,7.620269805192947E-002,-9.754969477653503E-001,-1.662957072257996E-001,
9.828333333333334E+008,5.715836584568024E-002,7.253371924161911E-002,-9.771985411643982E-001,-1.448500305414200E-001,5.715836584568024E-002,7.253371924161911E-002,-9.771985411643982E-001,-1.448500305414200E-001,
9.912000000000000E+008,6.527516990900040E-002,6.535974144935608E-002,-9.773631691932678E-001,-1.182257160544395E-001,6.527516990900040E-002,6.535974144935608E-002,-9.773631691932678E-001,-1.182257160544395E-001,
9.995666666666668E+008,7.206099480390549E-002,5.541640147566795E-002,-9.920700192451477E-001,-8.152731508016586E-002,7.206099480390549E-002,5.541640147566795E-002,-9.920700192451477E-001,-8.152731508016586E-002,
1.007933333333333E+009,7.286888360977173E-002,4.619960486888886E-002,-9.949675798416138E-001,-6.732791662216187E-002,7.286888360977173E-002,4.619960486888886E-002,-9.949675798416138E-001,-6.732791662216187E-002,
1.016300000000000E+009,6.737097352743149E-002,3.939152881503105E-002,-9.944959878921509E-001,-4.025758430361748E-002,6.737097352743149E-002,3.939152881503105E-002,-9.944959878921509E-001,-4.025758430361748E-002,
1.024666666666667E+009,6.044863536953926E-002,3.321356698870659E-002,-9.942018985748291E-001,-7.729046978056431E-003,6.044863536953926E-002,3.321356698870659E-002,-9.942018985748291E-001,-7.729046978056431E-003,
1.033033333333333E+009,5.413366109132767E-002,3.529929742217064E-002,-9.940440654754639E-001,1.132985018193722E-002,5.413366109132767E-002,3.529929742217064E-002,-9.940440654754639E-001,1.132985018193722E-002,
1.041400000000000E+009,4.876467958092690E-002,4.059217125177383E-002,-9.786099195480347E-001,4.906529933214188E-002,4.876467958092690E-002,4.059217125177383E-002,-9.786099195480347E-001,4.906529933214188E-002,
1.049766666666667E+009,4.907219484448433E-002,4.790193215012550E-002,-9.911064505577087E-001,6.890762597322464E-002,4.907219484448433E-002,4.790193215012550E-002,-9.911064505577087E-001,6.890762597322464E-002,
1.058133333333333E+009,5.546221137046814E-002,5.318208783864975E-002,-9.859811663627625E-001,8.842190355062485E-002,5.546221137046814E-002,5.318208783864975E-002,-9.859811663627625E-001,8.842190355062485E-002,
1.066500000000000E+009,6.741470843553543E-002,5.613439157605171E-002,-9.923034906387329E-001,1.283932626247406E-001,6.741470843553543E-002,5.613439157605171E-002,-9.923034906387329E-001,1.283932626247406E-001,
1.074866666666667E+009,7.813501358032227E-002,5.289760231971741E-002,-9.720240235328674E-001,1.455302238464356E-001,7.813501358032227E-002,5.289760231971741E-002,-9.720240235328674E-001,1.455302238464356E-001,
1.083233333333334E+009,8.997422456741333E-002,4.069340229034424E-002,-9.714375138282776E-001,1.655061095952988E-001,8.997422456741333E-002,4.069340229034424E-002,-9.714375138282776E-001,1.655061095952988E-001,
1.091600000000000E+009,9.648210555315018E-002,2.976159937679768E-002,-9.627014994621277E-001,1.871971935033798E-001,9.648210555315018E-002,2.976159937679768E-002,-9.627014994621277E-001,1.871971935033798E-001,
1.099966666666667E+009,9.856671839952469E-002,1.450733654201031E-002,-9.661239385604858E-001,2.265085428953171E-001,9.856671839952469E-002,1.450733654201031E-002,-9.661239385604858E-001,2.265085428953171E-001,
1.108333333333334E+009,8.963708579540253E-002,3.368089441210032E-003,-9.450029730796814E-001,2.288075536489487E-001,8.963708579540253E-002,3.368089441210032E-003,-9.450029730796814E-001,2.288075536489487E-001,
1.116700000000000E+009,7.626380026340485E-002,1.675736042670906E-003,-9.444301724433899E-001,2.750891745090485E-001,7.626380026340485E-002,1.675736042670906E-003,-9.444301724433899E-001,2.750891745090485E-001,
1.125066666666667E+009,6.437107175588608E-002,2.174127614125609E-003,-9.488282203674316E-001,2.851867973804474E-001,6.437107175588608E-002,2.174127614125609E-003,-9.488282203674316E-001,2.851867973804474E-001,
1.133433333333334E+009,5.582623556256294E-002,1.336082629859448E-002,-9.489002823829651E-001,3.110146820545197E-001,5.582623556256294E-002,1.336082629859448E-002,-9.489002823829651E-001,3.110146820545197E-001,
1.141800000000000E+009,5.536549165844917E-002,2.362507209181786E-002,-9.207592010498047E-001,3.309060931205750E-001,5.536549165844917E-002,2.362507209181786E-002,-9.207592010498047E-001,3.309060931205750E-001,
1.150166666666667E+009,6.256529688835144E-002,3.688262030482292E-002,-9.033612608909607E-001,3.621442914009094E-001,6.256529688835144E-002,3.688262030482292E-002,-9.033612608909607E-001,3.621442914009094E-001,
1.158533333333334E+009,7.703809440135956E-002,4.252215474843979E-002,-9.049878716468811E-001,3.859610259532929E-001,7.703809440135956E-002,4.252215474843979E-002,-9.049878716468811E-001,3.859610259532929E-001,
1.166900000000000E+009,9.661211818456650E-002,3.949505463242531E-002,-8.953846096992493E-001,4.191544950008392E-001,9.661211818456650E-002,3.949505463242531E-002,-8.953846096992493E-001,4.191544950008392E-001,
1.175266666666667E+009,1.111603379249573E-001,2.504870668053627E-002,-8.833685517311096E-001,4.247144162654877E-001,1.111603379249573E-001,2.504870668053627E-002,-8.833685517311096E-001,4.247144162654877E-001,
1.183633333333334E+009,1.222972422838211E-001,6.642488762736321E-003,-8.723996877670288E-001,4.640161991119385E-001,1.222972422838211E-001,6.642488762736321E-003,-8.723996877670288E-001,4.640161991119385E-001,
1.192000000000000E+009,1.227488368749619E-001,-1.563607156276703E-002,-8.622614145278931E-001,4.690665006637573E-001,1.227488368749619E-001,-1.563607156276703E-002,-8.622614145278931E-001,4.690665006637573E-001,
1.200366666666667E+009,1.115189939737320E-001,-3.231951221823692E-002,-8.530001640319824E-001,4.972403049468994E-001,1.115189939737320E-001,-3.231951221823692E-002,-8.530001640319824E-001,4.972403049468994E-001,
1.208733333333334E+009,9.569749981164932E-002,-4.262375831604004E-002,-8.478519320487976E-001,5.136668682098389E-001,9.569749981164932E-002,-4.262375831604004E-002,-8.478519320487976E-001,5.136668682098389E-001,
1.217100000000000E+009,7.777585834264755E-002,-4.040474817156792E-002,-8.340342044830322E-001,5.339311361312866E-001,7.777585834264755E-002,-4.040474817156792E-002,-8.340342044830322E-001,5.339311361312866E-001,
1.225466666666667E+009,6.653106212615967E-002,-3.334435448050499E-002,-8.079066276550293E-001,5.615934133529663E-001,6.653106212615967E-002,-3.334435448050499E-002,-8.079066276550293E-001,5.615934133529663E-001,
1.233833333333334E+009,5.980452150106430E-002,-1.806199923157692E-002,-7.924446463584900E-001,5.815633535385132E-001,5.980452150106430E-002,-1.806199923157692E-002,-7.924446463584900E-001,5.815633535385132E-001,
1.242200000000000E+009,6.401771306991577E-002,-2.436582697555423E-003,-7.769957780838013E-001,5.951637029647827E-001,6.401771306991577E-002,-2.436582697555423E-003,-7.769957780838013E-001,5.951637029647827E-001,
1.250566666666667E+009,7.883531600236893E-002,5.246138665825129E-003,-7.476121187210083E-001,6.220414042472839E-001,7.883531600236893E-002,5.246138665825129E-003,-7.476121187210083E-001,6.220414042472839E-001,
1.258933333333334E+009,9.590756893157959E-002,2.794398460537195E-003,-7.573877573013306E-001,6.420968174934387E-001,9.590756893157959E-002,2.794398460537195E-003,-7.573877573013306E-001,6.420968174934387E-001,
1.267300000000000E+009,1.127378791570664E-001,-1.140736043453217E-002,-7.360953092575073E-001,6.549986600875855E-001,1.127378791570664E-001,-1.140736043453217E-002,-7.360953092575073E-001,6.549986600875855E-001,
1.275666666666667E+009,1.216019168496132E-001,-3.255442157387734E-002,-7.016591429710388E-001,6.763821840286255E-001,1.216019168496132E-001,-3.255442157387734E-002,-7.016591429710388E-001,6.763821840286255E-001,
1.284033333333334E+009,1.193110719323158E-001,-5.687240511178970E-002,-6.936937570571899E-001,6.961338520050049E-001,1.193110719323158E-001,-5.687240511178970E-002,-6.936937570571899E-001,6.961338520050049E-001,
1.292400000000000E+009,1.069641187787056E-001,-7.639440149068832E-002,-6.846055984497070E-001,7.102165818214417E-001,1.069641187787056E-001,-7.639440149068832E-002,-6.846055984497070E-001,7.102165818214417E-001,
1.300766666666667E+009,8.733722567558289E-002,-8.590902388095856E-002,-6.604644060134888E-001,7.247146368026733E-001,8.733722567558289E-002,-8.590902388095856E-002,-6.604644060134888E-001,7.247146368026733E-001,
1.309133333333334E+009,6.501444429159164E-002,-8.586335182189941E-002,-6.496472954750061E-001,7.420579195022583E-001,6.501444429159164E-002,-8.586335182189941E-002,-6.496472954750061E-001,7.420579195022583E-001,
1.317500000000000E+009,5.171439051628113E-002,-7.491589337587357E-002,-6.267120838165283E-001,7.592636346817017E-001,5.171439051628113E-002,-7.491589337587357E-002,-6.267120838165283E-001,7.592636346817017E-001,
1.325866666666667E+009,4.525511339306831E-002,-5.703856423497200E-002,-6.110616922378540E-001,7.726863622665405E-001,4.525511339306831E-002,-5.703856423497200E-002,-6.110616922378540E-001,7.726863622665405E-001,
1.334233333333334E+009,5.102232843637466E-002,-4.146764427423477E-002,-5.799404382705689E-001,7.944040298461914E-001,5.102232843637466E-002,-4.146764427423477E-002,-5.799404382705689E-001,7.944040298461914E-001,
1.342600000000000E+009,6.363908946514130E-002,-3.469517081975937E-002,-5.606591701507568E-001,8.120849132537842E-001,6.363908946514130E-002,-3.469517081975937E-002,-5.606591701507568E-001,8.120849132537842E-001,
1.350966666666667E+009,8.038398623466492E-002,-3.844103962182999E-002,-5.302531123161316E-001,8.346848487854004E-001,8.038398623466492E-002,-3.844103962182999E-002,-5.302531123161316E-001,8.346848487854004E-001,
1.359333333333334E+009,9.450218826532364E-002,-5.199957266449928E-002,-5.169870257377625E-001,8.366227746009827E-001,9.450218826532364E-002,-5.199957266449928E-002,-5.169870257377625E-001,8.366227746009827E-001,
1.367700000000000E+009,9.447853267192841E-002,-7.530975341796875E-002,-5.006585121154785E-001,8.449077606201172E-001,9.447853267192841E-002,-7.530975341796875E-002,-5.006585121154785E-001,8.449077606201172E-001,
1.376066666666667E+009,8.768973499536514E-002,-9.556387364864349E-002,-4.851709604263306E-001,8.590963482856751E-001,8.768973499536514E-002,-9.556387364864349E-002,-4.851709604263306E-001,8.590963482856751E-001,
1.384433333333334E+009,6.890238076448441E-002,-1.144272685050964E-001,-4.570293128490448E-001,8.815836310386658E-001,6.890238076448441E-002,-1.144272685050964E-001,-4.570293128490448E-001,8.815836310386658E-001,
1.392800000000000E+009,4.558536037802696E-002,-1.189421117305756E-001,-4.466809034347534E-001,8.764938116073608E-001,4.558536037802696E-002,-1.189421117305756E-001,-4.466809034347534E-001,8.764938116073608E-001,
1.401166666666667E+009,2.451053634285927E-002,-1.115038469433785E-001,-4.234611988067627E-001,8.950985074043274E-001,2.451053634285927E-002,-1.115038469433785E-001,-4.234611988067627E-001,8.950985074043274E-001,
1.409533333333334E+009,9.402281604707241E-003,-9.568893909454346E-002,-3.932336270809174E-001,9.080503582954407E-001,9.402281604707241E-003,-9.568893909454346E-002,-3.932336270809174E-001,9.080503582954407E-001,
1.417900000000000E+009,6.569963879883289E-003,-7.267168909311295E-002,-3.783048689365387E-001,9.035299420356751E-001,6.569963879883289E-003,-7.267168909311295E-002,-3.783048689365387E-001,9.035299420356751E-001,
1.426266666666667E+009,1.645180769264698E-002,-5.744662135839462E-002,-3.458112478256226E-001,9.292744398117065E-001,1.645180769264698E-002,-5.744662135839462E-002,-3.458112478256226E-001,9.292744398117065E-001,
1.434633333333334E+009,3.368972614407539E-002,-4.789448529481888E-002,-3.106836974620819E-001,9.370401501655579E-001,3.368972614407539E-002,-4.789448529481888E-002,-3.106836974620819E-001,9.370401501655579E-001,
1.443000000000000E+009,5.160848423838615E-002,-5.118673667311668E-002,-2.936629056930542E-001,9.419737458229065E-001,5.160848423838615E-002,-5.118673667311668E-002,-2.936629056930542E-001,9.419737458229065E-001,
1.451366666666667E+009,6.479084491729736E-002,-6.493351608514786E-002,-2.607783377170563E-001,9.435384869575501E-001,6.479084491729736E-002,-6.493351608514786E-002,-2.607783377170563E-001,9.435384869575501E-001,
1.459733333333334E+009,6.978619098663330E-002,-8.868558704853058E-002,-2.448494136333466E-001,9.455518126487732E-001,6.978619098663330E-002,-8.868558704853058E-002,-2.448494136333466E-001,9.455518126487732E-001,
