% Version 1.00
%
%freq[Hz],re:Trc1_S11,im:Trc1_S11,re:Trc2_S21,im:Trc2_S21,re:Trc3_S11,im:Trc3_S11,re:Trc4_S21,im:Trc4_S21,
6.900000000000000E+008,-1.667100936174393E-002,1.589136384427548E-002,-4.663484692573547E-001,-8.723003268241882E-001,-1.667100936174393E-002,1.589136384427548E-002,-4.663484692573547E-001,-8.723003268241882E-001,
6.983666666666666E+008,-7.353393826633692E-003,1.650881394743919E-002,-4.904362559318543E-001,-8.642979860305786E-001,-7.353393826633692E-003,1.650881394743919E-002,-4.904362559318543E-001,-8.642979860305786E-001,
7.067333333333334E+008,-7.704530726186931E-004,1.117613352835178E-002,-5.367521643638611E-001,-8.032048940658569E-001,-7.704530726186931E-004,1.117613352835178E-002,-5.367521643638611E-001,-8.032048940658569E-001,
7.151000000000000E+008,-4.142185498494655E-004,3.233347320929170E-003,-5.535805225372315E-001,-8.164770007133484E-001,-4.142185498494655E-004,3.233347320929170E-003,-5.535805225372315E-001,-8.164770007133484E-001,
7.234666666666666E+008,-3.816806711256504E-003,-2.447391161695123E-003,-5.664276480674744E-001,-8.057217001914978E-001,-3.816806711256504E-003,-2.447391161695123E-003,-5.664276480674744E-001,-8.057217001914978E-001,
7.318333333333334E+008,-1.106238923966885E-002,-5.731540266424418E-003,-5.806963443756104E-001,-8.050650954246521E-001,-1.106238923966885E-002,-5.731540266424418E-003,-5.806963443756104E-001,-8.050650954246521E-001,
7.402000000000000E+008,-1.816401630640030E-002,-6.123168859630823E-003,-6.268834471702576E-001,-7.923605442047119E-001,-1.816401630640030E-002,-6.123168859630823E-003,-6.268834471702576E-001,-7.923605442047119E-001,
7.485666666666666E+008,-2.601052634418011E-002,-8.986063185147941E-004,-6.253111362457275E-001,-7.874172329902649E-001,-2.601052634418011E-002,-8.986063185147941E-004,-6.253111362457275E-001,-7.874172329902649E-001,
7.569333333333334E+008,-2.838592976331711E-002,6.218070629984140E-003,-6.336029171943665E-001,-7.672899961471558E-001,-2.838592976331711E-002,6.218070629984140E-003,-6.336029171943665E-001,-7.672899961471558E-001,
7.653000000000000E+008,-2.486540190875530E-002,1.322875730693340E-002,-6.517448425292969E-001,-7.494370341300964E-001,-2.486540190875530E-002,1.322875730693340E-002,-6.517448425292969E-001,-7.494370341300964E-001,
7.736666666666666E+008,-1.873128861188889E-002,1.918843202292919E-002,-6.860900521278381E-001,-7.236061096191406E-001,-1.873128861188889E-002,1.918843202292919E-002,-6.860900521278381E-001,-7.236061096191406E-001,
7.820333333333334E+008,-1.048882771283388E-002,2.188089676201344E-002,-6.984372735023499E-001,-7.116044163703919E-001,-1.048882771283388E-002,2.188089676201344E-002,-6.984372735023499E-001,-7.116044163703919E-001,
7.904000000000000E+008,-7.271210779435933E-004,2.073268406093121E-002,-7.029427886009216E-001,-6.890096068382263E-001,-7.271210779435933E-004,2.073268406093121E-002,-7.029427886009216E-001,-6.890096068382263E-001,
7.987666666666666E+008,3.797758137807250E-003,1.528535783290863E-002,-7.363650798797607E-001,-6.717375516891480E-001,3.797758137807250E-003,1.528535783290863E-002,-7.363650798797607E-001,-6.717375516891480E-001,
8.071333333333334E+008,6.601318251341581E-003,1.021158229559660E-002,-7.437133789062500E-001,-6.612204313278198E-001,6.601318251341581E-003,1.021158229559660E-002,-7.437133789062500E-001,-6.612204313278198E-001,
8.155000000000000E+008,9.966496145352721E-004,3.581190714612603E-003,-7.675825953483582E-001,-6.394667625427246E-001,9.966496145352721E-004,3.581190714612603E-003,-7.675825953483582E-001,-6.394667625427246E-001,
8.238666666666666E+008,-3.500540042296052E-003,-9.009556961245835E-004,-7.682664990425110E-001,-6.110839843750000E-001,-3.500540042296052E-003,-9.009556961245835E-004,-7.682664990425110E-001,-6.110839843750000E-001,
8.322333333333334E+008,-1.139103434979916E-002,-9.130759863182902E-004,-7.911028861999512E-001,-5.925534963607788E-001,-1.139103434979916E-002,-9.130759863182902E-004,-7.911028861999512E-001,-5.925534963607788E-001,
8.406000000000000E+008,-1.850762963294983E-002,2.604709938168526E-003,-8.032835721969605E-001,-5.815538763999939E-001,-1.850762963294983E-002,2.604709938168526E-003,-8.032835721969605E-001,-5.815538763999939E-001,
8.489666666666668E+008,-2.307145483791828E-002,8.935854770243168E-003,-8.140878081321716E-001,-5.666286945343018E-001,-2.307145483791828E-002,8.935854770243168E-003,-8.140878081321716E-001,-5.666286945343018E-001,
8.573333333333334E+008,-2.236022986471653E-002,1.676860079169273E-002,-8.324233293533325E-001,-5.275827050209045E-001,-2.236022986471653E-002,1.676860079169273E-002,-8.324233293533325E-001,-5.275827050209045E-001,
8.657000000000000E+008,-1.612038724124432E-002,2.358992025256157E-002,-8.516156077384949E-001,-5.087379217147827E-001,-1.612038724124432E-002,2.358992025256157E-002,-8.516156077384949E-001,-5.087379217147827E-001,
8.740666666666668E+008,-9.281422011554241E-003,2.656649984419346E-002,-8.487542271614075E-001,-4.962591528892517E-001,-9.281422011554241E-003,2.656649984419346E-002,-8.487542271614075E-001,-4.962591528892517E-001,
8.824333333333334E+008,-7.927215483505279E-005,2.650720812380314E-002,-8.676841259002686E-001,-4.835990071296692E-001,-7.927215483505279E-005,2.650720812380314E-002,-8.676841259002686E-001,-4.835990071296692E-001,
8.908000000000000E+008,8.228384889662266E-003,2.226442471146584E-002,-8.694137930870056E-001,-4.515202045440674E-001,8.228384889662266E-003,2.226442471146584E-002,-8.694137930870056E-001,-4.515202045440674E-001,
8.991666666666668E+008,1.197966560721397E-002,1.592865400016308E-002,-8.846870660781860E-001,-4.243878424167633E-001,1.197966560721397E-002,1.592865400016308E-002,-8.846870660781860E-001,-4.243878424167633E-001,
9.075333333333334E+008,1.159628853201866E-002,9.017843753099442E-003,-9.147601127624512E-001,-4.081752598285675E-001,1.159628853201866E-002,9.017843753099442E-003,-9.147601127624512E-001,-4.081752598285675E-001,
9.159000000000000E+008,8.159197866916657E-003,6.344889756292105E-003,-9.221177697181702E-001,-3.786150217056274E-001,8.159197866916657E-003,6.344889756292105E-003,-9.221177697181702E-001,-3.786150217056274E-001,
9.242666666666668E+008,2.399328397586942E-003,3.145142458379269E-003,-9.288219809532166E-001,-3.651488721370697E-001,2.399328397586942E-003,3.145142458379269E-003,-9.288219809532166E-001,-3.651488721370697E-001,
9.326333333333334E+008,-6.111812777817249E-003,3.673779778182507E-003,-9.499616622924805E-001,-3.443812131881714E-001,-6.111812777817249E-003,3.673779778182507E-003,-9.499616622924805E-001,-3.443812131881714E-001,
9.410000000000000E+008,-1.124396268278360E-002,8.205754682421684E-003,-9.454824328422546E-001,-3.101959824562073E-001,-1.124396268278360E-002,8.205754682421684E-003,-9.454824328422546E-001,-3.101959824562073E-001,
9.493666666666668E+008,-1.406760141253471E-002,1.452276110649109E-002,-9.445068240165710E-001,-2.938635051250458E-001,-1.406760141253471E-002,1.452276110649109E-002,-9.445068240165710E-001,-2.938635051250458E-001,
9.577333333333334E+008,-1.288961153477430E-002,2.329245209693909E-002,-9.607416987419128E-001,-2.716894447803497E-001,-1.288961153477430E-002,2.329245209693909E-002,-9.607416987419128E-001,-2.716894447803497E-001,
9.661000000000000E+008,-6.385463289916515E-003,3.055674023926258E-002,-9.615806937217712E-001,-2.473164647817612E-001,-6.385463289916515E-003,3.055674023926258E-002,-9.615806937217712E-001,-2.473164647817612E-001,
9.744666666666668E+008,1.084899413399398E-003,3.214268758893013E-002,-9.682314991950989E-001,-2.242254316806793E-001,1.084899413399398E-003,3.214268758893013E-002,-9.682314991950989E-001,-2.242254316806793E-001,
9.828333333333334E+008,1.369259599596262E-002,3.017140552401543E-002,-9.727755784988403E-001,-2.026179879903793E-001,1.369259599596262E-002,3.017140552401543E-002,-9.727755784988403E-001,-2.026179879903793E-001,
9.912000000000000E+008,2.083039470016956E-002,2.443309314548969E-002,-9.730953574180603E-001,-1.758493036031723E-001,2.083039470016956E-002,2.443309314548969E-002,-9.730953574180603E-001,-1.758493036031723E-001,
9.995666666666668E+008,2.723612636327744E-002,1.663096621632576E-002,-9.903975129127502E-001,-1.382999867200851E-001,2.723612636327744E-002,1.663096621632576E-002,-9.903975129127502E-001,-1.382999867200851E-001,
1.007933333333333E+009,2.689205855131149E-002,7.644976954907179E-003,-9.888349771499634E-001,-1.245860159397125E-001,2.689205855131149E-002,7.644976954907179E-003,-9.888349771499634E-001,-1.245860159397125E-001,
1.016300000000000E+009,2.100968547165394E-002,1.898005837574601E-003,-9.924128651618958E-001,-9.808971732854843E-002,2.100968547165394E-002,1.898005837574601E-003,-9.924128651618958E-001,-9.808971732854843E-002,
1.024666666666667E+009,1.330849528312683E-002,-4.461884032934904E-003,-9.934581518173218E-001,-6.609240919351578E-002,1.330849528312683E-002,-4.461884032934904E-003,-9.934581518173218E-001,-6.609240919351578E-002,
1.033033333333333E+009,5.431689787656069E-003,-1.617629197426140E-003,-9.936495423316956E-001,-4.786219075322151E-002,5.431689787656069E-003,-1.617629197426140E-003,-9.936495423316956E-001,-4.786219075322151E-002,
1.041400000000000E+009,-1.966514158993959E-003,4.505426157265902E-003,-9.816015958786011E-001,-8.420939557254314E-003,-1.966514158993959E-003,4.505426157265902E-003,-9.816015958786011E-001,-8.420939557254314E-003,
1.049766666666667E+009,-4.556174390017986E-003,1.322697382420301E-002,-9.950416684150696E-001,8.821099996566773E-003,-4.556174390017986E-003,1.322697382420301E-002,-9.950416684150696E-001,8.821099996566773E-003,
1.058133333333333E+009,-8.011900354176760E-004,2.049842849373817E-002,-9.901682138442993E-001,2.662731707096100E-002,-8.011900354176760E-004,2.049842849373817E-002,-9.901682138442993E-001,2.662731707096100E-002,
1.066500000000000E+009,8.171128109097481E-003,2.617884799838066E-002,-1.000104546546936E+000,6.447545439004898E-002,8.171128109097481E-003,2.617884799838066E-002,-1.000104546546936E+000,6.447545439004898E-002,
1.074866666666667E+009,1.848803274333477E-002,2.546389959752560E-002,-9.847630858421326E-001,8.288453519344330E-002,1.848803274333477E-002,2.546389959752560E-002,-9.847630858421326E-001,8.288453519344330E-002,
1.083233333333334E+009,2.936081588268280E-002,1.607479900121689E-002,-9.831421971321106E-001,1.037922725081444E-001,2.936081588268280E-002,1.607479900121689E-002,-9.831421971321106E-001,1.037922725081444E-001,
1.091600000000000E+009,3.616035729646683E-002,6.526623852550983E-003,-9.760472178459168E-001,1.268666684627533E-001,3.616035729646683E-002,6.526623852550983E-003,-9.760472178459168E-001,1.268666684627533E-001,
1.099966666666667E+009,3.726644441485405E-002,-6.856192834675312E-003,-9.806896448135376E-001,1.647248864173889E-001,3.726644441485405E-002,-6.856192834675312E-003,-9.806896448135376E-001,1.647248864173889E-001,
1.108333333333334E+009,2.869020588696003E-002,-1.766793802380562E-002,-9.580047726631165E-001,1.688831299543381E-001,2.869020588696003E-002,-1.766793802380562E-002,-9.580047726631165E-001,1.688831299543381E-001,
1.116700000000000E+009,1.595595292747021E-002,-1.801023632287979E-002,-9.604017138481140E-001,2.137889862060547E-001,1.595595292747021E-002,-1.801023632287979E-002,-9.604017138481140E-001,2.137889862060547E-001,
1.125066666666667E+009,1.974731916561723E-003,-1.795398630201817E-002,-9.663129448890686E-001,2.222076803445816E-001,1.974731916561723E-003,-1.795398630201817E-002,-9.663129448890686E-001,2.222076803445816E-001,
1.133433333333334E+009,-8.601763285696507E-003,-5.792601965367794E-003,-9.677694439888001E-001,2.465468794107437E-001,-8.601763285696507E-003,-5.792601965367794E-003,-9.677694439888001E-001,2.465468794107437E-001,
1.141800000000000E+009,-1.168245915323496E-002,6.593137979507446E-003,-9.414879083633423E-001,2.677446007728577E-001,-1.168245915323496E-002,6.593137979507446E-003,-9.414879083633423E-001,2.677446007728577E-001,
1.150166666666667E+009,-7.636339403688908E-003,2.286878973245621E-002,-9.286106824874878E-001,2.994647920131683E-001,-7.636339403688908E-003,2.286878973245621E-002,-9.286106824874878E-001,2.994647920131683E-001,
1.158533333333334E+009,4.796816501766443E-003,3.221278637647629E-002,-9.319601655006409E-001,3.235156536102295E-001,4.796816501766443E-003,3.221278637647629E-002,-9.319601655006409E-001,3.235156536102295E-001,
1.166900000000000E+009,2.302719838917255E-002,3.341520950198174E-002,-9.247069954872131E-001,3.560849428176880E-001,2.302719838917255E-002,3.341520950198174E-002,-9.247069954872131E-001,3.560849428176880E-001,
1.175266666666667E+009,3.875867649912834E-002,2.370486594736576E-002,-9.154912829399109E-001,3.618118166923523E-001,3.875867649912834E-002,2.370486594736576E-002,-9.154912829399109E-001,3.618118166923523E-001,
1.183633333333334E+009,5.113421380519867E-002,8.683953434228897E-003,-9.074825048446655E-001,4.026476740837097E-001,5.113421380519867E-002,8.683953434228897E-003,-9.074825048446655E-001,4.026476740837097E-001,
1.192000000000000E+009,5.342625826597214E-002,-1.185243949294090E-002,-8.972704410552979E-001,4.098870456218720E-001,5.342625826597214E-002,-1.185243949294090E-002,-8.972704410552979E-001,4.098870456218720E-001,
1.200366666666667E+009,4.385232552886009E-002,-2.778639458119869E-002,-8.894976377487183E-001,4.379037916660309E-001,4.385232552886009E-002,-2.778639458119869E-002,-8.894976377487183E-001,4.379037916660309E-001,
1.208733333333334E+009,2.901762910187244E-002,-3.859316557645798E-002,-8.839865326881409E-001,4.554425179958344E-001,2.901762910187244E-002,-3.859316557645798E-002,-8.839865326881409E-001,4.554425179958344E-001,
1.217100000000000E+009,1.042592432349920E-002,-3.601029142737389E-002,-8.708636164665222E-001,4.748921096324921E-001,1.042592432349920E-002,-3.601029142737389E-002,-8.708636164665222E-001,4.748921096324921E-001,
1.225466666666667E+009,-2.140971831977367E-003,-2.762237563729286E-002,-8.465258479118347E-001,5.031487941741943E-001,-2.140971831977367E-003,-2.762237563729286E-002,-8.465258479118347E-001,5.031487941741943E-001,
1.233833333333334E+009,-1.095324382185936E-002,-1.122652273625135E-002,-8.323393464088440E-001,5.207520723342896E-001,-1.095324382185936E-002,-1.122652273625135E-002,-8.323393464088440E-001,5.207520723342896E-001,
1.242200000000000E+009,-9.882530197501183E-003,6.862510461360216E-003,-8.189913034439087E-001,5.345742106437683E-001,-9.882530197501183E-003,6.862510461360216E-003,-8.189913034439087E-001,5.345742106437683E-001,
1.250566666666667E+009,3.349717706441879E-003,1.880470663309097E-002,-7.950659990310669E-001,5.631592273712158E-001,3.349717706441879E-003,1.880470663309097E-002,-7.950659990310669E-001,5.631592273712158E-001,
1.258933333333334E+009,2.072788216173649E-002,2.221774682402611E-002,-8.077979683876038E-001,5.832315683364868E-001,2.072788216173649E-002,2.221774682402611E-002,-8.077979683876038E-001,5.832315683364868E-001,
1.267300000000000E+009,3.893388807773590E-002,1.326071005314589E-002,-7.882899641990662E-001,5.977039337158203E-001,3.893388807773590E-002,1.326071005314589E-002,-7.882899641990662E-001,5.977039337158203E-001,
1.275666666666667E+009,5.021125078201294E-002,-4.483181983232498E-003,-7.563892006874085E-001,6.235280036926270E-001,5.021125078201294E-002,-4.483181983232498E-003,-7.563892006874085E-001,6.235280036926270E-001,
1.284033333333334E+009,5.117242038249970E-002,-2.637428790330887E-002,-7.500678896903992E-001,6.441445946693420E-001,5.117242038249970E-002,-2.637428790330887E-002,-7.500678896903992E-001,6.441445946693420E-001,
1.292400000000000E+009,4.135879501700401E-002,-4.530980810523033E-002,-7.378296852111816E-001,6.587892174720764E-001,4.135879501700401E-002,-4.530980810523033E-002,-7.378296852111816E-001,6.587892174720764E-001,
1.300766666666667E+009,2.351540327072144E-002,-5.587157234549522E-002,-7.161386013031006E-001,6.762623786926270E-001,2.351540327072144E-002,-5.587157234549522E-002,-7.161386013031006E-001,6.762623786926270E-001,
1.309133333333334E+009,1.804575091227889E-003,-5.545315146446228E-002,-7.046410441398621E-001,6.933870315551758E-001,1.804575091227889E-003,-5.545315146446228E-002,-7.046410441398621E-001,6.933870315551758E-001,
1.317500000000000E+009,-1.350119337439537E-002,-4.445989802479744E-002,-6.824584603309631E-001,7.096571326255798E-001,-1.350119337439537E-002,-4.445989802479744E-002,-6.824584603309631E-001,7.096571326255798E-001,
1.325866666666667E+009,-2.090994454920292E-002,-2.522694878280163E-002,-6.670446395874023E-001,7.236808538436890E-001,-2.090994454920292E-002,-2.522694878280163E-002,-6.670446395874023E-001,7.236808538436890E-001,
1.334233333333334E+009,-1.687018387019634E-002,-6.415640003979206E-003,-6.423034667968750E-001,7.455092072486877E-001,-1.687018387019634E-002,-6.415640003979206E-003,-6.423034667968750E-001,7.455092072486877E-001,
1.342600000000000E+009,-4.734176676720381E-003,5.026584956794977E-003,-6.249888539314270E-001,7.646747231483460E-001,-4.734176676720381E-003,5.026584956794977E-003,-6.249888539314270E-001,7.646747231483460E-001,
1.350966666666667E+009,1.297474186867476E-002,6.494328845292330E-003,-5.968995690345764E-001,7.923435568809509E-001,1.297474186867476E-002,6.494328845292330E-003,-5.968995690345764E-001,7.923435568809509E-001,
1.359333333333334E+009,2.903807163238525E-002,-2.864925423637033E-003,-5.874361395835877E-001,7.948772311210632E-001,2.903807163238525E-002,-2.864925423637033E-003,-5.874361395835877E-001,7.948772311210632E-001,
1.367700000000000E+009,3.397227451205254E-002,-2.287942171096802E-002,-5.701985955238342E-001,8.048719763755798E-001,3.397227451205254E-002,-2.287942171096802E-002,-5.701985955238342E-001,8.048719763755798E-001,
1.376066666666667E+009,3.107689134776592E-002,-4.209041595458984E-002,-5.560312271118164E-001,8.227813243865967E-001,3.107689134776592E-002,-4.209041595458984E-002,-5.560312271118164E-001,8.227813243865967E-001,
1.384433333333334E+009,1.535695418715477E-002,-6.086474284529686E-002,-5.309477448463440E-001,8.457039594650269E-001,1.535695418715477E-002,-6.086474284529686E-002,-5.309477448463440E-001,8.457039594650269E-001,
1.392800000000000E+009,-6.104493979364634E-003,-6.638959795236588E-002,-5.156447887420654E-001,8.399854898452759E-001,-6.104493979364634E-003,-6.638959795236588E-002,-5.156447887420654E-001,8.399854898452759E-001,
1.401166666666667E+009,-2.787487953901291E-002,-5.997003242373467E-002,-4.944084882736206E-001,8.606219291687012E-001,-2.787487953901291E-002,-5.997003242373467E-002,-4.944084882736206E-001,8.606219291687012E-001,
1.409533333333334E+009,-4.340989515185356E-002,-4.473453760147095E-002,-4.641729891300201E-001,8.730646967887878E-001,-4.340989515185356E-002,-4.473453760147095E-002,-4.641729891300201E-001,8.730646967887878E-001,
1.417900000000000E+009,-4.821947962045670E-002,-1.984992250800133E-002,-4.512424767017365E-001,8.680203557014465E-001,-4.821947962045670E-002,-1.984992250800133E-002,-4.512424767017365E-001,8.680203557014465E-001,
1.426266666666667E+009,-3.950680047273636E-002,-4.996022325940430E-004,-4.222115874290466E-001,8.952154517173767E-001,-3.950680047273636E-002,-4.996022325940430E-004,-4.222115874290466E-001,8.952154517173767E-001,
1.434633333333334E+009,-2.252948470413685E-002,1.343904435634613E-002,-3.913813829421997E-001,9.061868786811829E-001,-2.252948470413685E-002,1.343904435634613E-002,-3.913813829421997E-001,9.061868786811829E-001,
1.443000000000000E+009,-2.226430689916015E-003,1.592595316469669E-002,-3.769558668136597E-001,9.125590324401856E-001,-2.226430689916015E-003,1.592595316469669E-002,-3.769558668136597E-001,9.125590324401856E-001,
1.451366666666667E+009,1.521096751093864E-002,6.310892291367054E-003,-3.470374047756195E-001,9.183848500251770E-001,1.521096751093864E-002,6.310892291367054E-003,-3.470374047756195E-001,9.183848500251770E-001,
1.459733333333334E+009,2.489406615495682E-002,-1.430676598101854E-002,-3.294819295406342E-001,9.249919652938843E-001,2.489406615495682E-002,-1.430676598101854E-002,-3.294819295406342E-001,9.249919652938843E-001,
