% Version 1.00
%
%freq[Hz],re:Trc1_S11,im:Trc1_S11,re:Trc2_S21,im:Trc2_S21,re:Trc3_S11,im:Trc3_S11,re:Trc4_S21,im:Trc4_S21,
6.900000000000000E+008,-3.199882060289383E-002,5.184543877840042E-002,-4.972453415393829E-001,-8.506386876106262E-001,-3.199882060289383E-002,5.184543877840042E-002,-4.972453415393829E-001,-8.506386876106262E-001,
6.983666666666666E+008,-2.179182507097721E-002,5.319324135780335E-002,-5.197993516921997E-001,-8.419316411018372E-001,-2.179182507097721E-002,5.319324135780335E-002,-5.197993516921997E-001,-8.419316411018372E-001,
7.067333333333334E+008,-1.459768228232861E-002,4.857593029737473E-002,-5.646886825561523E-001,-7.800549268722534E-001,-1.459768228232861E-002,4.857593029737473E-002,-5.646886825561523E-001,-7.800549268722534E-001,
7.151000000000000E+008,-1.288541406393051E-002,4.130446538329125E-002,-5.837590694427490E-001,-7.933694124221802E-001,-1.288541406393051E-002,4.130446538329125E-002,-5.837590694427490E-001,-7.933694124221802E-001,
7.234666666666666E+008,-1.518785674124956E-002,3.605886548757553E-002,-5.953571796417236E-001,-7.818264365196228E-001,-1.518785674124956E-002,3.605886548757553E-002,-5.953571796417236E-001,-7.818264365196228E-001,
7.318333333333334E+008,-2.125103399157524E-002,3.375844284892082E-002,-6.106561422348023E-001,-7.799073457717896E-001,-2.125103399157524E-002,3.375844284892082E-002,-6.106561422348023E-001,-7.799073457717896E-001,
7.402000000000000E+008,-2.718916721642017E-002,3.404177725315094E-002,-6.553668379783630E-001,-7.623593211174011E-001,-2.718916721642017E-002,3.404177725315094E-002,-6.553668379783630E-001,-7.623593211174011E-001,
7.485666666666666E+008,-3.358472511172295E-002,4.019502922892571E-002,-6.538409590721130E-001,-7.583659887313843E-001,-3.358472511172295E-002,4.019502922892571E-002,-6.538409590721130E-001,-7.583659887313843E-001,
7.569333333333334E+008,-3.447685390710831E-002,4.825506731867790E-002,-6.619479060173035E-001,-7.374656200408936E-001,-3.447685390710831E-002,4.825506731867790E-002,-6.619479060173035E-001,-7.374656200408936E-001,
7.653000000000000E+008,-2.913900651037693E-002,5.619199201464653E-002,-6.795428991317749E-001,-7.177597284317017E-001,-2.913900651037693E-002,5.619199201464653E-002,-6.795428991317749E-001,-7.177597284317017E-001,
7.736666666666666E+008,-2.186411619186401E-002,6.279998272657394E-002,-7.121693491935730E-001,-6.918854713439941E-001,-2.186411619186401E-002,6.279998272657394E-002,-7.121693491935730E-001,-6.918854713439941E-001,
7.820333333333334E+008,-1.206509117037058E-002,6.598071008920670E-002,-7.239772677421570E-001,-6.789125204086304E-001,-1.206509117037058E-002,6.598071008920670E-002,-7.239772677421570E-001,-6.789125204086304E-001,
7.904000000000000E+008,-8.874730556271970E-004,6.524080783128738E-002,-7.283329963684082E-001,-6.577163934707642E-001,-8.874730556271970E-004,6.524080783128738E-002,-7.283329963684082E-001,-6.577163934707642E-001,
7.987666666666666E+008,4.710374400019646E-003,5.994044989347458E-002,-7.627684473991394E-001,-6.371216177940369E-001,4.710374400019646E-003,5.994044989347458E-002,-7.627684473991394E-001,-6.371216177940369E-001,
8.071333333333334E+008,8.584121242165566E-003,5.480781197547913E-002,-7.678009867668152E-001,-6.256588101387024E-001,8.584121242165566E-003,5.480781197547913E-002,-7.678009867668152E-001,-6.256588101387024E-001,
8.155000000000000E+008,3.547248896211386E-003,4.879464209079742E-002,-7.909966111183167E-001,-6.040279865264893E-001,3.547248896211386E-003,4.879464209079742E-002,-7.909966111183167E-001,-6.040279865264893E-001,
8.238666666666666E+008,1.122726825997233E-003,4.488786309957504E-002,-7.923013567924500E-001,-5.746909379959106E-001,1.122726825997233E-003,4.488786309957504E-002,-7.923013567924500E-001,-5.746909379959106E-001,
8.322333333333334E+008,-5.473251454532147E-003,4.496002197265625E-002,-8.139434456825256E-001,-5.551989674568176E-001,-5.473251454532147E-003,4.496002197265625E-002,-8.139434456825256E-001,-5.551989674568176E-001,
8.406000000000000E+008,-1.051505934447050E-002,4.874872043728828E-002,-8.247649669647217E-001,-5.421639084815979E-001,-1.051505934447050E-002,4.874872043728828E-002,-8.247649669647217E-001,-5.421639084815979E-001,
8.489666666666668E+008,-1.355408784002066E-002,5.607090145349503E-002,-8.355119228363037E-001,-5.270564556121826E-001,-1.355408784002066E-002,5.607090145349503E-002,-8.355119228363037E-001,-5.270564556121826E-001,
8.573333333333334E+008,-1.104937866330147E-002,6.382931768894196E-002,-8.525086045265198E-001,-4.862757623195648E-001,-1.104937866330147E-002,6.382931768894196E-002,-8.525086045265198E-001,-4.862757623195648E-001,
8.657000000000000E+008,-1.438643666915596E-003,7.095800340175629E-002,-8.689615130424500E-001,-4.667033851146698E-001,-1.438643666915596E-003,7.095800340175629E-002,-8.689615130424500E-001,-4.667033851146698E-001,
8.740666666666668E+008,7.232171483337879E-003,7.352833449840546E-002,-8.669415116310120E-001,-4.542887210845947E-001,7.232171483337879E-003,7.352833449840546E-002,-8.669415116310120E-001,-4.542887210845947E-001,
8.824333333333334E+008,1.801158674061298E-002,7.277002185583115E-002,-8.840529918670654E-001,-4.392423927783966E-001,1.801158674061298E-002,7.277002185583115E-002,-8.840529918670654E-001,-4.392423927783966E-001,
8.908000000000000E+008,2.791603840887547E-002,6.773122400045395E-002,-8.844606280326843E-001,-4.078238904476166E-001,2.791603840887547E-002,6.773122400045395E-002,-8.844606280326843E-001,-4.078238904476166E-001,
8.991666666666668E+008,3.217039257287979E-002,6.062004342675209E-002,-8.995009064674377E-001,-3.804413080215454E-001,3.217039257287979E-002,6.062004342675209E-002,-8.995009064674377E-001,-3.804413080215454E-001,
9.075333333333334E+008,3.319844231009483E-002,5.383312329649925E-002,-9.292456507682800E-001,-3.615998327732086E-001,3.319844231009483E-002,5.383312329649925E-002,-9.292456507682800E-001,-3.615998327732086E-001,
9.159000000000000E+008,3.087877668440342E-002,5.095710605382919E-002,-9.355036020278931E-001,-3.335709273815155E-001,3.087877668440342E-002,5.095710605382919E-002,-9.355036020278931E-001,-3.335709273815155E-001,
9.242666666666668E+008,2.608502842485905E-002,4.758160188794136E-002,-9.407574534416199E-001,-3.192274868488312E-001,2.608502842485905E-002,4.758160188794136E-002,-9.407574534416199E-001,-3.192274868488312E-001,
9.326333333333334E+008,1.898014917969704E-002,4.842993244528770E-002,-9.619390964508057E-001,-2.953961491584778E-001,1.898014917969704E-002,4.842993244528770E-002,-9.619390964508057E-001,-2.953961491584778E-001,
9.410000000000000E+008,1.594313792884350E-002,5.277048796415329E-002,-9.547312259674072E-001,-2.619017064571381E-001,1.594313792884350E-002,5.277048796415329E-002,-9.547312259674072E-001,-2.619017064571381E-001,
9.493666666666668E+008,1.580331474542618E-002,5.895321816205978E-002,-9.529453516006470E-001,-2.437650859355927E-001,1.580331474542618E-002,5.895321816205978E-002,-9.529453516006470E-001,-2.437650859355927E-001,
9.577333333333334E+008,1.933160424232483E-002,6.695542484521866E-002,-9.691662192344666E-001,-2.203474044799805E-001,1.933160424232483E-002,6.695542484521866E-002,-9.691662192344666E-001,-2.203474044799805E-001,
9.661000000000000E+008,2.917526476085186E-002,7.314237952232361E-002,-9.668917059898377E-001,-1.961533576250076E-001,2.917526476085186E-002,7.314237952232361E-002,-9.668917059898377E-001,-1.961533576250076E-001,
9.744666666666668E+008,3.815008699893951E-002,7.247900217771530E-002,-9.719505310058594E-001,-1.717489212751389E-001,3.815008699893951E-002,7.247900217771530E-002,-9.719505310058594E-001,-1.717489212751389E-001,
9.828333333333334E+008,5.217478051781654E-002,6.869591027498245E-002,-9.743669629096985E-001,-1.511793732643127E-001,5.217478051781654E-002,6.869591027498245E-002,-9.743669629096985E-001,-1.511793732643127E-001,
9.912000000000000E+008,6.025133281946182E-002,6.156142801046372E-002,-9.742876291275024E-001,-1.240750327706337E-001,6.025133281946182E-002,6.156142801046372E-002,-9.742876291275024E-001,-1.240750327706337E-001,
9.995666666666668E+008,6.691612303256989E-002,5.182507634162903E-002,-9.897777438163757E-001,-8.609575778245926E-002,6.691612303256989E-002,5.182507634162903E-002,-9.897777438163757E-001,-8.609575778245926E-002,
1.007933333333333E+009,6.732333451509476E-002,4.229626804590225E-002,-9.874075651168823E-001,-7.184781134128571E-002,6.732333451509476E-002,4.229626804590225E-002,-9.874075651168823E-001,-7.184781134128571E-002,
1.016300000000000E+009,6.193758547306061E-002,3.621037676930428E-002,-9.892917871475220E-001,-4.559990018606186E-002,6.193758547306061E-002,3.621037676930428E-002,-9.892917871475220E-001,-4.559990018606186E-002,
1.024666666666667E+009,5.516616627573967E-002,3.003778122365475E-002,-9.889947175979614E-001,-1.268042437732220E-002,5.516616627573967E-002,3.003778122365475E-002,-9.889947175979614E-001,-1.268042437732220E-002,
1.033033333333333E+009,4.879844188690186E-002,3.252906724810600E-002,-9.884558320045471E-001,6.326503586024046E-003,4.879844188690186E-002,3.252906724810600E-002,-9.884558320045471E-001,6.326503586024046E-003,
1.041400000000000E+009,4.337453097105026E-002,3.792962804436684E-002,-9.738015532493591E-001,4.440653696656227E-002,4.337453097105026E-002,3.792962804436684E-002,-9.738015532493591E-001,4.440653696656227E-002,
1.049766666666667E+009,4.349832236766815E-002,4.534502327442169E-002,-9.859381914138794E-001,6.371913105249405E-002,4.349832236766815E-002,4.534502327442169E-002,-9.859381914138794E-001,6.371913105249405E-002,
1.058133333333333E+009,4.973492771387100E-002,5.089622363448143E-002,-9.799636602401733E-001,8.224502950906754E-002,4.973492771387100E-002,5.089622363448143E-002,-9.799636602401733E-001,8.224502950906754E-002,
1.066500000000000E+009,6.139197573065758E-002,5.371330678462982E-002,-9.863921999931335E-001,1.209354400634766E-001,6.139197573065758E-002,5.371330678462982E-002,-9.863921999931335E-001,1.209354400634766E-001,
1.074866666666667E+009,7.199099659919739E-002,5.069790408015251E-002,-9.685086607933044E-001,1.376941651105881E-001,7.199099659919739E-002,5.069790408015251E-002,-9.685086607933044E-001,1.376941651105881E-001,
1.083233333333334E+009,8.325514942407608E-002,3.831642866134644E-002,-9.668754339218140E-001,1.584585160017014E-001,8.325514942407608E-002,3.831642866134644E-002,-9.668754339218140E-001,1.584585160017014E-001,
1.091600000000000E+009,8.957663178443909E-002,2.746335975825787E-002,-9.578369259834290E-001,1.799124777317047E-001,8.957663178443909E-002,2.746335975825787E-002,-9.578369259834290E-001,1.799124777317047E-001,
1.099966666666667E+009,9.140899777412415E-002,1.254330296069384E-002,-9.611209034919739E-001,2.179689556360245E-001,9.140899777412415E-002,1.254330296069384E-002,-9.611209034919739E-001,2.179689556360245E-001,
1.108333333333334E+009,8.278763294219971E-002,1.696065650321543E-003,-9.400863647460938E-001,2.216544002294540E-001,8.278763294219971E-002,1.696065650321543E-003,-9.400863647460938E-001,2.216544002294540E-001,
1.116700000000000E+009,6.957845389842987E-002,4.370221577119082E-004,-9.398329257965088E-001,2.662986516952515E-001,6.957845389842987E-002,4.370221577119082E-004,-9.398329257965088E-001,2.662986516952515E-001,
1.125066666666667E+009,5.771059170365334E-002,9.191125282086432E-004,-9.447781443595886E-001,2.763739824295044E-001,5.771059170365334E-002,9.191125282086432E-004,-9.447781443595886E-001,2.763739824295044E-001,
1.133433333333334E+009,4.919036105275154E-002,1.253375783562660E-002,-9.449709057807922E-001,3.016006946563721E-001,4.919036105275154E-002,1.253375783562660E-002,-9.449709057807922E-001,3.016006946563721E-001,
1.141800000000000E+009,4.902665317058563E-002,2.304858714342117E-002,-9.172130823135376E-001,3.227339982986450E-001,4.902665317058563E-002,2.304858714342117E-002,-9.172130823135376E-001,3.227339982986450E-001,
1.150166666666667E+009,5.604591220617294E-002,3.617966175079346E-002,-9.001324176788330E-001,3.539713919162750E-001,5.604591220617294E-002,3.617966175079346E-002,-9.001324176788330E-001,3.539713919162750E-001,
1.158533333333334E+009,7.025073468685150E-002,4.173899441957474E-002,-9.021685123443604E-001,3.783435821533203E-001,7.025073468685150E-002,4.173899441957474E-002,-9.021685123443604E-001,3.783435821533203E-001,
1.166900000000000E+009,8.945650607347488E-002,3.878964111208916E-002,-8.919102549552918E-001,4.112442433834076E-001,8.945650607347488E-002,3.878964111208916E-002,-8.919102549552918E-001,4.112442433834076E-001,
1.175266666666667E+009,1.037482619285584E-001,2.494432777166367E-002,-8.811641335487366E-001,4.157305359840393E-001,1.037482619285584E-001,2.494432777166367E-002,-8.811641335487366E-001,4.157305359840393E-001,
1.183633333333334E+009,1.146192252635956E-001,7.047256920486689E-003,-8.697632551193237E-001,4.538203477859497E-001,1.146192252635956E-001,7.047256920486689E-003,-8.697632551193237E-001,4.538203477859497E-001,
1.192000000000000E+009,1.150863468647003E-001,-1.498200371861458E-002,-8.595421314239502E-001,4.602772593498230E-001,1.150863468647003E-001,-1.498200371861458E-002,-8.595421314239502E-001,4.602772593498230E-001,
1.200366666666667E+009,1.043658852577210E-001,-3.142849355936050E-002,-8.509497642517090E-001,4.872041046619415E-001,1.043658852577210E-001,-3.142849355936050E-002,-8.509497642517090E-001,4.872041046619415E-001,
1.208733333333334E+009,8.926960080862045E-002,-4.181153327226639E-002,-8.459464907646179E-001,5.040220618247986E-001,8.926960080862045E-002,-4.181153327226639E-002,-8.459464907646179E-001,5.040220618247986E-001,
1.217100000000000E+009,7.154161483049393E-002,-3.947091102600098E-002,-8.312245607376099E-001,5.245208740234375E-001,7.154161483049393E-002,-3.947091102600098E-002,-8.312245607376099E-001,5.245208740234375E-001,
1.225466666666667E+009,6.036164239048958E-002,-3.229303285479546E-002,-8.065872192382813E-001,5.515496730804443E-001,6.036164239048958E-002,-3.229303285479546E-002,-8.065872192382813E-001,5.515496730804443E-001,
1.233833333333334E+009,5.358210206031799E-002,-1.683881506323814E-002,-7.906808853149414E-001,5.703967809677124E-001,5.358210206031799E-002,-1.683881506323814E-002,-7.906808853149414E-001,5.703967809677124E-001,
1.242200000000000E+009,5.732868611812592E-002,-1.597445341758430E-003,-7.761763334274292E-001,5.837711691856384E-001,5.732868611812592E-002,-1.597445341758430E-003,-7.761763334274292E-001,5.837711691856384E-001,
1.250566666666667E+009,7.186162471771240E-002,6.008991971611977E-003,-7.488567829132080E-001,6.119677424430847E-001,7.186162471771240E-002,6.008991971611977E-003,-7.488567829132080E-001,6.119677424430847E-001,
1.258933333333334E+009,8.894485235214233E-002,4.151414148509502E-003,-7.581137418746948E-001,6.316568255424500E-001,8.894485235214233E-002,4.151414148509502E-003,-7.581137418746948E-001,6.316568255424500E-001,
1.267300000000000E+009,1.052422001957893E-001,-9.682012721896172E-003,-7.369430065155029E-001,6.440442800521851E-001,1.052422001957893E-001,-9.682012721896172E-003,-7.369430065155029E-001,6.440442800521851E-001,
1.275666666666667E+009,1.140252053737640E-001,-2.986509539186955E-002,-7.031616568565369E-001,6.664265394210815E-001,1.140252053737640E-001,-2.986509539186955E-002,-7.031616568565369E-001,6.664265394210815E-001,
1.284033333333334E+009,1.119221150875092E-001,-5.370320379734039E-002,-6.958042979240418E-001,6.849195361137390E-001,1.119221150875092E-001,-5.370320379734039E-002,-6.958042979240418E-001,6.849195361137390E-001,
1.292400000000000E+009,9.997555613517761E-002,-7.348904758691788E-002,-6.845818758010864E-001,6.995196342468262E-001,9.997555613517761E-002,-7.348904758691788E-002,-6.845818758010864E-001,6.995196342468262E-001,
1.300766666666667E+009,8.103162795305252E-002,-8.287427574396133E-002,-6.619468927383423E-001,7.151826620101929E-001,8.103162795305252E-002,-8.287427574396133E-002,-6.619468927383423E-001,7.151826620101929E-001,
1.309133333333334E+009,5.901376903057098E-002,-8.262890577316284E-002,-6.506751179695129E-001,7.322730422019959E-001,5.901376903057098E-002,-8.262890577316284E-002,-6.506751179695129E-001,7.322730422019959E-001,
1.317500000000000E+009,4.573699086904526E-002,-7.200956344604492E-002,-6.264447569847107E-001,7.472023963928223E-001,4.573699086904526E-002,-7.200956344604492E-002,-6.264447569847107E-001,7.472023963928223E-001,
1.325866666666667E+009,3.918480128049851E-002,-5.401776358485222E-002,-6.113713383674622E-001,7.627937197685242E-001,3.918480128049851E-002,-5.401776358485222E-002,-6.113713383674622E-001,7.627937197685242E-001,
1.334233333333334E+009,4.477694258093834E-002,-3.825217857956886E-002,-5.830124020576477E-001,7.837796807289124E-001,4.477694258093834E-002,-3.825217857956886E-002,-5.830124020576477E-001,7.837796807289124E-001,
1.342600000000000E+009,5.725201591849327E-002,-3.135197982192040E-002,-5.635084509849548E-001,8.026123642921448E-001,5.725201591849327E-002,-3.135197982192040E-002,-5.635084509849548E-001,8.026123642921448E-001,
1.350966666666667E+009,7.390515506267548E-002,-3.481677547097206E-002,-5.317856669425964E-001,8.258276581764221E-001,7.390515506267548E-002,-3.481677547097206E-002,-5.317856669425964E-001,8.258276581764221E-001,
1.359333333333334E+009,8.824935555458069E-002,-4.805484041571617E-002,-5.203515291213989E-001,8.267937302589417E-001,8.824935555458069E-002,-4.805484041571617E-002,-5.203515291213989E-001,8.267937302589417E-001,
1.367700000000000E+009,8.842313289642334E-002,-7.057929784059525E-002,-5.030050277709961E-001,8.347912430763245E-001,8.842313289642334E-002,-7.057929784059525E-002,-5.030050277709961E-001,8.347912430763245E-001,
1.376066666666667E+009,8.175797760486603E-002,-9.095563739538193E-002,-4.872065484523773E-001,8.502149581909180E-001,8.175797760486603E-002,-9.095563739538193E-002,-4.872065484523773E-001,8.502149581909180E-001,
1.384433333333334E+009,6.312118470668793E-002,-1.096180230379105E-001,-4.624575376510620E-001,8.708957433700562E-001,6.312118470668793E-002,-1.096180230379105E-001,-4.624575376510620E-001,8.708957433700562E-001,
1.392800000000000E+009,4.019913077354431E-002,-1.143130138516426E-001,-4.496600925922394E-001,8.653851747512817E-001,4.019913077354431E-002,-1.143130138516426E-001,-4.496600925922394E-001,8.653851747512817E-001,
1.401166666666667E+009,1.908415928483009E-002,-1.070191711187363E-001,-4.264398515224457E-001,8.845405578613281E-001,1.908415928483009E-002,-1.070191711187363E-001,-4.264398515224457E-001,8.845405578613281E-001,
1.409533333333334E+009,4.354231059551239E-003,-9.132259339094162E-002,-3.959300518035889E-001,8.959769010543823E-001,4.354231059551239E-003,-9.132259339094162E-002,-3.959300518035889E-001,8.959769010543823E-001,
1.417900000000000E+009,1.419240026734769E-003,-6.811680644750595E-002,-3.830435574054718E-001,8.916109204292297E-001,1.419240026734769E-003,-6.811680644750595E-002,-3.830435574054718E-001,8.916109204292297E-001,
1.426266666666667E+009,1.119268592447043E-002,-5.252506211400032E-002,-3.502752482891083E-001,9.169711470603943E-001,1.119268592447043E-002,-5.252506211400032E-002,-3.502752482891083E-001,9.169711470603943E-001,
1.434633333333334E+009,2.833337523043156E-002,-4.262909665703774E-002,-3.163591921329498E-001,9.263922572135925E-001,2.833337523043156E-002,-4.262909665703774E-002,-3.163591921329498E-001,9.263922572135925E-001,
1.443000000000000E+009,4.628709703683853E-002,-4.550674185156822E-002,-2.989549040794373E-001,9.303542375564575E-001,4.628709703683853E-002,-4.550674185156822E-002,-2.989549040794373E-001,9.303542375564575E-001,
1.451366666666667E+009,6.008982285857201E-002,-5.892806872725487E-002,-2.672896385192871E-001,9.330459833145142E-001,6.008982285857201E-002,-5.892806872725487E-002,-2.672896385192871E-001,9.330459833145142E-001,
1.459733333333334E+009,6.502939015626907E-002,-8.237790316343308E-002,-2.503001689910889E-001,9.351431727409363E-001,6.502939015626907E-002,-8.237790316343308E-002,-2.503001689910889E-001,9.351431727409363E-001,
