% Version 1.00
%
%freq[Hz],re:Trc1_S11,im:Trc1_S11,re:Trc2_S21,im:Trc2_S21,re:Trc3_S11,im:Trc3_S11,re:Trc4_S21,im:Trc4_S21,
6.900000000000000E+008,-2.999147027730942E-002,5.856248363852501E-002,-5.026759505271912E-001,-8.480545878410339E-001,-2.999147027730942E-002,5.856248363852501E-002,-5.026759505271912E-001,-8.480545878410339E-001,
6.983666666666666E+008,-1.980983838438988E-002,5.945436656475067E-002,-5.247786641120911E-001,-8.386813402175903E-001,-1.980983838438988E-002,5.945436656475067E-002,-5.247786641120911E-001,-8.386813402175903E-001,
7.067333333333334E+008,-1.261339057236910E-002,5.444495379924774E-002,-5.695669651031494E-001,-7.758377194404602E-001,-1.261339057236910E-002,5.444495379924774E-002,-5.695669651031494E-001,-7.758377194404602E-001,
7.151000000000000E+008,-1.101870834827423E-002,4.725944995880127E-002,-5.887627601623535E-001,-7.899318933486939E-001,-1.101870834827423E-002,4.725944995880127E-002,-5.887627601623535E-001,-7.899318933486939E-001,
7.234666666666666E+008,-1.345875766128302E-002,4.226472973823547E-002,-6.007287502288818E-001,-7.780908942222595E-001,-1.345875766128302E-002,4.226472973823547E-002,-6.007287502288818E-001,-7.780908942222595E-001,
7.318333333333334E+008,-1.953677460551262E-002,4.037972539663315E-002,-6.157356500625610E-001,-7.767441272735596E-001,-1.953677460551262E-002,4.037972539663315E-002,-6.157356500625610E-001,-7.767441272735596E-001,
7.402000000000000E+008,-2.520721033215523E-002,4.109629243612289E-002,-6.609896421432495E-001,-7.582743167877197E-001,-2.520721033215523E-002,4.109629243612289E-002,-6.609896421432495E-001,-7.582743167877197E-001,
7.485666666666666E+008,-3.098248876631260E-002,4.748665541410446E-002,-6.589351296424866E-001,-7.544571757316589E-001,-3.098248876631260E-002,4.748665541410446E-002,-6.589351296424866E-001,-7.544571757316589E-001,
7.569333333333334E+008,-3.113280981779099E-002,5.574945360422134E-002,-6.669296622276306E-001,-7.335230708122253E-001,-3.113280981779099E-002,5.574945360422134E-002,-6.669296622276306E-001,-7.335230708122253E-001,
7.653000000000000E+008,-2.537171170115471E-002,6.340152025222778E-002,-6.855438351631165E-001,-7.135623097419739E-001,-2.537171170115471E-002,6.340152025222778E-002,-6.855438351631165E-001,-7.135623097419739E-001,
7.736666666666666E+008,-1.760538667440414E-002,6.953167915344238E-002,-7.176924347877502E-001,-6.869494915008545E-001,-1.760538667440414E-002,6.953167915344238E-002,-7.176924347877502E-001,-6.869494915008545E-001,
7.820333333333334E+008,-7.419007364660502E-003,7.231337577104569E-002,-7.282962203025818E-001,-6.736449003219605E-001,-7.419007364660502E-003,7.231337577104569E-002,-7.282962203025818E-001,-6.736449003219605E-001,
7.904000000000000E+008,4.006884992122650E-003,7.106665521860123E-002,-7.335020303726196E-001,-6.530281305313110E-001,4.006884992122650E-003,7.106665521860123E-002,-7.335020303726196E-001,-6.530281305313110E-001,
7.987666666666666E+008,9.475526399910450E-003,6.549873948097229E-002,-7.665944099426270E-001,-6.312525272369385E-001,9.475526399910450E-003,6.549873948097229E-002,-7.665944099426270E-001,-6.312525272369385E-001,
8.071333333333334E+008,1.333432924002409E-002,6.037717685103416E-002,-7.726385593414307E-001,-6.208001971244812E-001,1.333432924002409E-002,6.037717685103416E-002,-7.726385593414307E-001,-6.208001971244812E-001,
8.155000000000000E+008,8.532678708434105E-003,5.426218733191490E-002,-7.956964969635010E-001,-5.987999439239502E-001,8.532678708434105E-003,5.426218733191490E-002,-7.956964969635010E-001,-5.987999439239502E-001,
8.238666666666666E+008,5.798423197120428E-003,5.013240128755570E-002,-7.964993119239807E-001,-5.697923898696899E-001,5.798423197120428E-003,5.013240128755570E-002,-7.964993119239807E-001,-5.697923898696899E-001,
8.322333333333334E+008,-5.439104279503226E-004,5.076545104384422E-002,-8.184670805931091E-001,-5.502358078956604E-001,-5.439104279503226E-004,5.076545104384422E-002,-8.184670805931091E-001,-5.502358078956604E-001,
8.406000000000000E+008,-5.107980221509934E-003,5.473005399107933E-002,-8.301792740821838E-001,-5.366222262382507E-001,-5.107980221509934E-003,5.473005399107933E-002,-8.301792740821838E-001,-5.366222262382507E-001,
8.489666666666668E+008,-7.683450821787119E-003,6.217318773269653E-002,-8.404974937438965E-001,-5.210172533988953E-001,-7.683450821787119E-003,6.217318773269653E-002,-8.404974937438965E-001,-5.210172533988953E-001,
8.573333333333334E+008,-4.864148795604706E-003,6.967441737651825E-002,-8.570159077644348E-001,-4.807040393352509E-001,-4.864148795604706E-003,6.967441737651825E-002,-8.570159077644348E-001,-4.807040393352509E-001,
8.657000000000000E+008,5.058151669800282E-003,7.642634212970734E-002,-8.730397224426270E-001,-4.603855013847351E-001,5.058151669800282E-003,7.642634212970734E-002,-8.730397224426270E-001,-4.603855013847351E-001,
8.740666666666668E+008,1.394333969801664E-002,7.852344959974289E-002,-8.716676831245422E-001,-4.481174349784851E-001,1.394333969801664E-002,7.852344959974289E-002,-8.716676831245422E-001,-4.481174349784851E-001,
8.824333333333334E+008,2.478250488638878E-002,7.759649306535721E-002,-8.887621164321899E-001,-4.328806996345520E-001,2.478250488638878E-002,7.759649306535721E-002,-8.887621164321899E-001,-4.328806996345520E-001,
8.908000000000000E+008,3.468779474496841E-002,7.228282094001770E-002,-8.888595700263977E-001,-4.014620482921600E-001,3.468779474496841E-002,7.228282094001770E-002,-8.888595700263977E-001,-4.014620482921600E-001,
8.991666666666668E+008,3.901932388544083E-002,6.511557847261429E-002,-9.041733741760254E-001,-3.737510144710541E-001,3.901932388544083E-002,6.511557847261429E-002,-9.041733741760254E-001,-3.737510144710541E-001,
9.075333333333334E+008,4.044551402330399E-002,5.825849622488022E-002,-9.342429637908936E-001,-3.541648983955383E-001,4.044551402330399E-002,5.825849622488022E-002,-9.342429637908936E-001,-3.541648983955383E-001,
9.159000000000000E+008,3.850733488798142E-002,5.504919588565826E-002,-9.399887919425964E-001,-3.260620534420013E-001,3.850733488798142E-002,5.504919588565826E-002,-9.399887919425964E-001,-3.260620534420013E-001,
9.242666666666668E+008,3.397442400455475E-002,5.154486373066902E-002,-9.447665810585022E-001,-3.114804625511169E-001,3.397442400455475E-002,5.154486373066902E-002,-9.447665810585022E-001,-3.114804625511169E-001,
9.326333333333334E+008,2.729929052293301E-002,5.221655964851379E-002,-9.652124643325806E-001,-2.876924276351929E-001,2.729929052293301E-002,5.221655964851379E-002,-9.652124643325806E-001,-2.876924276351929E-001,
9.410000000000000E+008,2.451314404606819E-002,5.641331896185875E-002,-9.582686424255371E-001,-2.540395259857178E-001,2.451314404606819E-002,5.641331896185875E-002,-9.582686424255371E-001,-2.540395259857178E-001,
9.493666666666668E+008,2.464543282985687E-002,6.235293298959732E-002,-9.570315480232239E-001,-2.353712916374207E-001,2.464543282985687E-002,6.235293298959732E-002,-9.570315480232239E-001,-2.353712916374207E-001,
9.577333333333334E+008,2.818955294787884E-002,7.015915215015411E-002,-9.720969200134277E-001,-2.110728472471237E-001,2.818955294787884E-002,7.015915215015411E-002,-9.720969200134277E-001,-2.110728472471237E-001,
9.661000000000000E+008,3.811134770512581E-002,7.615402340888977E-002,-9.689043760299683E-001,-1.877096742391586E-001,3.811134770512581E-002,7.615402340888977E-002,-9.689043760299683E-001,-1.877096742391586E-001,
9.744666666666668E+008,4.698579758405685E-002,7.512753456830978E-002,-9.740107059478760E-001,-1.634693592786789E-001,4.698579758405685E-002,7.512753456830978E-002,-9.740107059478760E-001,-1.634693592786789E-001,
9.828333333333334E+008,6.119443476200104E-002,7.126339524984360E-002,-9.768846631050110E-001,-1.435227841138840E-001,6.119443476200104E-002,7.126339524984360E-002,-9.768846631050110E-001,-1.435227841138840E-001,
9.912000000000000E+008,6.940858066082001E-002,6.387773901224136E-002,-9.765955209732056E-001,-1.158769652247429E-001,6.940858066082001E-002,6.387773901224136E-002,-9.765955209732056E-001,-1.158769652247429E-001,
9.995666666666668E+008,7.609930634498596E-002,5.368494242429733E-002,-9.907860755920410E-001,-7.780438661575317E-002,7.609930634498596E-002,5.368494242429733E-002,-9.907860755920410E-001,-7.780438661575317E-002,
1.007933333333333E+009,7.657381147146225E-002,4.378684237599373E-002,-9.890087246894836E-001,-6.417392194271088E-002,7.657381147146225E-002,4.378684237599373E-002,-9.890087246894836E-001,-6.417392194271088E-002,
1.016300000000000E+009,7.131487876176834E-002,3.721161559224129E-002,-9.921378493309021E-001,-3.703632578253746E-002,7.131487876176834E-002,3.721161559224129E-002,-9.921378493309021E-001,-3.703632578253746E-002,
1.024666666666667E+009,6.469313055276871E-002,3.069260343909264E-002,-9.913105368614197E-001,-4.592675250023603E-003,6.469313055276871E-002,3.069260343909264E-002,-9.913105368614197E-001,-4.592675250023603E-003,
1.033033333333333E+009,5.839001759886742E-002,3.290235251188278E-002,-9.908456206321716E-001,1.450576446950436E-002,5.839001759886742E-002,3.290235251188278E-002,-9.908456206321716E-001,1.450576446950436E-002,
1.041400000000000E+009,5.303159728646278E-002,3.816816210746765E-002,-9.761016368865967E-001,5.305986478924751E-002,5.303159728646278E-002,3.816816210746765E-002,-9.761016368865967E-001,5.305986478924751E-002,
1.049766666666667E+009,5.321677029132843E-002,4.538186267018318E-002,-9.884001612663269E-001,7.265749573707581E-002,5.321677029132843E-002,4.538186267018318E-002,-9.884001612663269E-001,7.265749573707581E-002,
1.058133333333333E+009,5.950330197811127E-002,5.079198628664017E-002,-9.820143580436707E-001,9.179943799972534E-002,5.950330197811127E-002,5.079198628664017E-002,-9.820143580436707E-001,9.179943799972534E-002,
1.066500000000000E+009,7.144693285226822E-002,5.318675562739372E-002,-9.878459572792053E-001,1.312133520841599E-001,7.144693285226822E-002,5.318675562739372E-002,-9.878459572792053E-001,1.312133520841599E-001,
1.074866666666667E+009,8.195978403091431E-002,5.007107555866242E-002,-9.699025750160217E-001,1.476235538721085E-001,8.195978403091431E-002,5.007107555866242E-002,-9.699025750160217E-001,1.476235538721085E-001,
1.083233333333334E+009,9.350871294736862E-002,3.735882416367531E-002,-9.687998294830322E-001,1.690769642591476E-001,9.350871294736862E-002,3.735882416367531E-002,-9.687998294830322E-001,1.690769642591476E-001,
1.091600000000000E+009,9.988868981599808E-002,2.620885707437992E-002,-9.584982395172119E-001,1.898186802864075E-001,9.988868981599808E-002,2.620885707437992E-002,-9.584982395172119E-001,1.898186802864075E-001,
1.099966666666667E+009,1.017576605081558E-001,1.070275716483593E-002,-9.618276953697205E-001,2.285896837711334E-001,1.017576605081558E-001,1.070275716483593E-002,-9.618276953697205E-001,2.285896837711334E-001,
1.108333333333334E+009,9.283084422349930E-002,-5.061260308139026E-004,-9.405008554458618E-001,2.313213199377060E-001,9.283084422349930E-002,-5.061260308139026E-004,-9.405008554458618E-001,2.313213199377060E-001,
1.116700000000000E+009,7.924329489469528E-002,-2.180440118536353E-003,-9.401081800460815E-001,2.759228348731995E-001,7.924329489469528E-002,-2.180440118536353E-003,-9.401081800460815E-001,2.759228348731995E-001,
1.125066666666667E+009,6.767100840806961E-002,-1.949877943843603E-003,-9.444765448570252E-001,2.866140305995941E-001,6.767100840806961E-002,-1.949877943843603E-003,-9.444765448570252E-001,2.866140305995941E-001,
1.133433333333334E+009,5.918112024664879E-002,9.043075144290924E-003,-9.449399709701538E-001,3.122628331184387E-001,5.918112024664879E-002,9.043075144290924E-003,-9.449399709701538E-001,3.122628331184387E-001,
1.141800000000000E+009,5.868601053953171E-002,1.945876702666283E-002,-9.171129465103149E-001,3.331741690635681E-001,5.868601053953171E-002,1.945876702666283E-002,-9.171129465103149E-001,3.331741690635681E-001,
1.150166666666667E+009,6.591752171516419E-002,3.232758864760399E-002,-8.989718556404114E-001,3.641844093799591E-001,6.591752171516419E-002,3.232758864760399E-002,-8.989718556404114E-001,3.641844093799591E-001,
1.158533333333334E+009,8.019827306270599E-002,3.794701024889946E-002,-8.999202847480774E-001,3.888794183731079E-001,8.019827306270599E-002,3.794701024889946E-002,-8.999202847480774E-001,3.888794183731079E-001,
1.166900000000000E+009,9.954162687063217E-002,3.446995466947556E-002,-8.908482789993286E-001,4.224773943424225E-001,9.954162687063217E-002,3.446995466947556E-002,-8.908482789993286E-001,4.224773943424225E-001,
1.175266666666667E+009,1.137240454554558E-001,2.013949491083622E-002,-8.797883987426758E-001,4.265610873699188E-001,1.137240454554558E-001,2.013949491083622E-002,-8.797883987426758E-001,4.265610873699188E-001,
1.183633333333334E+009,1.244439557194710E-001,1.550502842292190E-003,-8.673417568206787E-001,4.639011025428772E-001,1.244439557194710E-001,1.550502842292190E-003,-8.673417568206787E-001,4.639011025428772E-001,
1.192000000000000E+009,1.245938390493393E-001,-2.073291130363941E-002,-8.575364351272583E-001,4.700504541397095E-001,1.245938390493393E-001,-2.073291130363941E-002,-8.575364351272583E-001,4.700504541397095E-001,
1.200366666666667E+009,1.133014857769013E-001,-3.751944005489349E-002,-8.489585518836975E-001,4.974843263626099E-001,1.133014857769013E-001,-3.751944005489349E-002,-8.489585518836975E-001,4.974843263626099E-001,
1.208733333333334E+009,9.765876084566116E-002,-4.805501922965050E-002,-8.434959650039673E-001,5.147348046302795E-001,9.765876084566116E-002,-4.805501922965050E-002,-8.434959650039673E-001,5.147348046302795E-001,
1.217100000000000E+009,7.951765507459641E-002,-4.587620869278908E-002,-8.279259204864502E-001,5.363390445709229E-001,7.951765507459641E-002,-4.587620869278908E-002,-8.279259204864502E-001,5.363390445709229E-001,
1.225466666666667E+009,6.830307096242905E-002,-3.893005102872849E-002,-8.031108379364014E-001,5.630784034729004E-001,6.830307096242905E-002,-3.893005102872849E-002,-8.031108379364014E-001,5.630784034729004E-001,
1.233833333333334E+009,6.181092187762260E-002,-2.329892292618752E-002,-7.863455414772034E-001,5.821928381919861E-001,6.181092187762260E-002,-2.329892292618752E-002,-7.863455414772034E-001,5.821928381919861E-001,
1.242200000000000E+009,6.586280465126038E-002,-8.332590572535992E-003,-7.727251052856445E-001,5.947665572166443E-001,6.586280465126038E-002,-8.332590572535992E-003,-7.727251052856445E-001,5.947665572166443E-001,
1.250566666666667E+009,8.054035156965256E-002,-1.086781616322696E-003,-7.445681691169739E-001,6.228707432746887E-001,8.054035156965256E-002,-1.086781616322696E-003,-7.445681691169739E-001,6.228707432746887E-001,
1.258933333333334E+009,9.749388694763184E-002,-3.476475365459919E-003,-7.533018589019775E-001,6.424548625946045E-001,9.749388694763184E-002,-3.476475365459919E-003,-7.533018589019775E-001,6.424548625946045E-001,
1.267300000000000E+009,1.135805398225784E-001,-1.782500930130482E-002,-7.305824160575867E-001,6.545809507369995E-001,1.135805398225784E-001,-1.782500930130482E-002,-7.305824160575867E-001,6.545809507369995E-001,
1.275666666666667E+009,1.221096888184547E-001,-3.863525390625000E-002,-6.965346336364746E-001,6.759133338928223E-001,1.221096888184547E-001,-3.863525390625000E-002,-6.965346336364746E-001,6.759133338928223E-001,
1.284033333333334E+009,1.195459738373756E-001,-6.294001638889313E-002,-6.896188259124756E-001,6.954799294471741E-001,1.195459738373756E-001,-6.294001638889313E-002,-6.896188259124756E-001,6.954799294471741E-001,
1.292400000000000E+009,1.069634407758713E-001,-8.272960782051086E-002,-6.783029437065125E-001,7.094967365264893E-001,1.069634407758713E-001,-8.272960782051086E-002,-6.783029437065125E-001,7.094967365264893E-001,
1.300766666666667E+009,8.722500503063202E-002,-9.205547720193863E-002,-6.554613709449768E-001,7.243978977203369E-001,8.722500503063202E-002,-9.205547720193863E-002,-6.554613709449768E-001,7.243978977203369E-001,
1.309133333333334E+009,6.464021652936935E-002,-9.183336794376373E-002,-6.443750262260437E-001,7.412871718406677E-001,6.464021652936935E-002,-9.183336794376373E-002,-6.443750262260437E-001,7.412871718406677E-001,
1.317500000000000E+009,5.137265101075172E-002,-8.135966211557388E-002,-6.207692623138428E-001,7.567703723907471E-001,5.137265101075172E-002,-8.135966211557388E-002,-6.207692623138428E-001,7.567703723907471E-001,
1.325866666666667E+009,4.476396739482880E-002,-6.334131211042404E-002,-6.051673293113709E-001,7.723083496093750E-001,4.476396739482880E-002,-6.334131211042404E-002,-6.051673293113709E-001,7.723083496093750E-001,
1.334233333333334E+009,5.047547817230225E-002,-4.795651137828827E-002,-5.755956172943115E-001,7.935818433761597E-001,5.047547817230225E-002,-4.795651137828827E-002,-5.755956172943115E-001,7.935818433761597E-001,
1.342600000000000E+009,6.302758306264877E-002,-4.120308160781860E-002,-5.560648441314697E-001,8.107427954673767E-001,6.302758306264877E-002,-4.120308160781860E-002,-5.560648441314697E-001,8.107427954673767E-001,
1.350966666666667E+009,7.943682372570038E-002,-4.532565176486969E-002,-5.243766903877258E-001,8.354877829551697E-001,7.943682372570038E-002,-4.532565176486969E-002,-5.243766903877258E-001,8.354877829551697E-001,
1.359333333333334E+009,9.341435879468918E-002,-5.898872762918472E-002,-5.121349692344666E-001,8.366275429725647E-001,9.341435879468918E-002,-5.898872762918472E-002,-5.121349692344666E-001,8.366275429725647E-001,
1.367700000000000E+009,9.301431477069855E-002,-8.162698149681091E-002,-4.947722852230072E-001,8.437482714653015E-001,9.301431477069855E-002,-8.162698149681091E-002,-4.947722852230072E-001,8.437482714653015E-001,
1.376066666666667E+009,8.590961992740631E-002,-1.020532771945000E-001,-4.797215759754181E-001,8.587062358856201E-001,8.590961992740631E-002,-1.020532771945000E-001,-4.797215759754181E-001,8.587062358856201E-001,
1.384433333333334E+009,6.666790693998337E-002,-1.204360127449036E-001,-4.537420868873596E-001,8.788715600967407E-001,6.666790693998337E-002,-1.204360127449036E-001,-4.537420868873596E-001,8.788715600967407E-001,
1.392800000000000E+009,4.327571764588356E-002,-1.249977275729179E-001,-4.416513442993164E-001,8.739936351776123E-001,4.327571764588356E-002,-1.249977275729179E-001,-4.416513442993164E-001,8.739936351776123E-001,
1.401166666666667E+009,2.200248651206493E-002,-1.176955327391625E-001,-4.185940027236939E-001,8.925693631172180E-001,2.200248651206493E-002,-1.176955327391625E-001,-4.185940027236939E-001,8.925693631172180E-001,
1.409533333333334E+009,6.836030632257462E-003,-1.019228175282478E-001,-3.874954581260681E-001,9.039908051490784E-001,6.836030632257462E-003,-1.019228175282478E-001,-3.874954581260681E-001,9.039908051490784E-001,
1.417900000000000E+009,3.855390474200249E-003,-7.884494215250015E-002,-3.747096061706543E-001,9.010991454124451E-001,3.855390474200249E-003,-7.884494215250015E-002,-3.747096061706543E-001,9.010991454124451E-001,
1.426266666666667E+009,1.363986078649759E-002,-6.359390914440155E-002,-3.416931331157684E-001,9.254362583160400E-001,1.363986078649759E-002,-6.359390914440155E-002,-3.416931331157684E-001,9.254362583160400E-001,
1.434633333333334E+009,3.060470521450043E-002,-5.431364849209786E-002,-3.073220849037170E-001,9.343408346176148E-001,3.060470521450043E-002,-5.431364849209786E-002,-3.073220849037170E-001,9.343408346176148E-001,
1.443000000000000E+009,4.825032874941826E-002,-5.757766216993332E-002,-2.893344461917877E-001,9.387537240982056E-001,4.825032874941826E-002,-5.757766216993332E-002,-2.893344461917877E-001,9.387537240982056E-001,
1.451366666666667E+009,6.136901676654816E-002,-7.127767056226730E-002,-2.560030221939087E-001,9.406557083129883E-001,6.136901676654816E-002,-7.127767056226730E-002,-2.560030221939087E-001,9.406557083129883E-001,
1.459733333333334E+009,6.573100388050079E-002,-9.480244666337967E-002,-2.395974248647690E-001,9.423177838325501E-001,6.573100388050079E-002,-9.480244666337967E-002,-2.395974248647690E-001,9.423177838325501E-001,
