% Version 1.00
%
%freq[Hz],re:Trc1_S11,im:Trc1_S11,re:Trc2_S21,im:Trc2_S21,re:Trc3_S11,im:Trc3_S11,re:Trc4_S21,im:Trc4_S21,
6.900000000000000E+008,-3.003188222646713E-002,5.820059031248093E-002,-5.005749464035034E-001,-8.462828397750855E-001,-3.003188222646713E-002,5.820059031248093E-002,-5.005749464035034E-001,-8.462828397750855E-001,
6.983666666666666E+008,-1.974529959261417E-002,5.941582098603249E-002,-5.234562754631043E-001,-8.383020162582398E-001,-1.974529959261417E-002,5.941582098603249E-002,-5.234562754631043E-001,-8.383020162582398E-001,
7.067333333333334E+008,-1.280614547431469E-002,5.457381904125214E-002,-5.691497921943665E-001,-7.768049240112305E-001,-1.280614547431469E-002,5.457381904125214E-002,-5.691497921943665E-001,-7.768049240112305E-001,
7.151000000000000E+008,-1.099083852022886E-002,4.711992666125298E-002,-5.878334045410156E-001,-7.898370623588562E-001,-1.099083852022886E-002,4.711992666125298E-002,-5.878334045410156E-001,-7.898370623588562E-001,
7.234666666666666E+008,-1.346812583506107E-002,4.228243231773377E-002,-6.015671491622925E-001,-7.773699760437012E-001,-1.346812583506107E-002,4.228243231773377E-002,-6.015671491622925E-001,-7.773699760437012E-001,
7.318333333333334E+008,-1.940753310918808E-002,4.029190167784691E-002,-6.161987781524658E-001,-7.757126688957214E-001,-1.940753310918808E-002,4.029190167784691E-002,-6.161987781524658E-001,-7.757126688957214E-001,
7.402000000000000E+008,-2.531718648970127E-002,4.108616337180138E-002,-6.605063676834106E-001,-7.580986022949219E-001,-2.531718648970127E-002,4.108616337180138E-002,-6.605063676834106E-001,-7.580986022949219E-001,
7.485666666666666E+008,-3.100644610822201E-002,4.751183837652206E-002,-6.598951220512390E-001,-7.541492581367493E-001,-3.100644610822201E-002,4.751183837652206E-002,-6.598951220512390E-001,-7.541492581367493E-001,
7.569333333333334E+008,-3.117409162223339E-002,5.574440583586693E-002,-6.678998470306397E-001,-7.341136336326599E-001,-3.117409162223339E-002,5.574440583586693E-002,-6.678998470306397E-001,-7.341136336326599E-001,
7.653000000000000E+008,-2.521805092692375E-002,6.342223286628723E-002,-6.837078928947449E-001,-7.117377519607544E-001,-2.521805092692375E-002,6.342223286628723E-002,-6.837078928947449E-001,-7.117377519607544E-001,
7.736666666666666E+008,-1.762023195624352E-002,6.945325434207916E-002,-7.177526950836182E-001,-6.863151192665100E-001,-1.762023195624352E-002,6.945325434207916E-002,-7.177526950836182E-001,-6.863151192665100E-001,
7.820333333333334E+008,-7.501234766095877E-003,7.214391976594925E-002,-7.286487221717835E-001,-6.745777130126953E-001,-7.501234766095877E-003,7.214391976594925E-002,-7.286487221717835E-001,-6.745777130126953E-001,
7.904000000000000E+008,3.832445247098804E-003,7.122380286455154E-002,-7.342700362205505E-001,-6.532306671142578E-001,3.832445247098804E-003,7.122380286455154E-002,-7.342700362205505E-001,-6.532306671142578E-001,
7.987666666666666E+008,9.467391297221184E-003,6.556552648544312E-002,-7.687193751335144E-001,-6.330355405807495E-001,9.467391297221184E-003,6.556552648544312E-002,-7.687193751335144E-001,-6.330355405807495E-001,
8.071333333333334E+008,1.328455749899149E-002,6.026286631822586E-002,-7.716833949089050E-001,-6.203331351280212E-001,1.328455749899149E-002,6.026286631822586E-002,-7.716833949089050E-001,-6.203331351280212E-001,
8.155000000000000E+008,8.505818434059620E-003,5.429080128669739E-002,-7.958596348762512E-001,-5.990762114524841E-001,8.505818434059620E-003,5.429080128669739E-002,-7.958596348762512E-001,-5.990762114524841E-001,
8.238666666666666E+008,5.839892663061619E-003,5.019149929285049E-002,-7.973517179489136E-001,-5.688806176185608E-001,5.839892663061619E-003,5.019149929285049E-002,-7.973517179489136E-001,-5.688806176185608E-001,
8.322333333333334E+008,-4.816963337361813E-004,5.076688155531883E-002,-8.193340897560120E-001,-5.505408644676209E-001,-4.816963337361813E-004,5.076688155531883E-002,-8.193340897560120E-001,-5.505408644676209E-001,
8.406000000000000E+008,-5.163399502635002E-003,5.471807345747948E-002,-8.298355340957642E-001,-5.366069078445435E-001,-5.163399502635002E-003,5.471807345747948E-002,-8.298355340957642E-001,-5.366069078445435E-001,
8.489666666666668E+008,-7.667251396924257E-003,6.223729625344276E-002,-8.402755260467529E-001,-5.219098329544067E-001,-7.667251396924257E-003,6.223729625344276E-002,-8.402755260467529E-001,-5.219098329544067E-001,
8.573333333333334E+008,-4.911420866847038E-003,6.961593031883240E-002,-8.592128157615662E-001,-4.807813167572022E-001,-4.911420866847038E-003,6.961593031883240E-002,-8.592128157615662E-001,-4.807813167572022E-001,
8.657000000000000E+008,5.153522826731205E-003,7.638257741928101E-002,-8.741787075996399E-001,-4.606874287128449E-001,5.153522826731205E-003,7.638257741928101E-002,-8.741787075996399E-001,-4.606874287128449E-001,
8.740666666666668E+008,1.384440623223782E-002,7.860551029443741E-002,-8.703016042709351E-001,-4.474570751190186E-001,1.384440623223782E-002,7.860551029443741E-002,-8.703016042709351E-001,-4.474570751190186E-001,
8.824333333333334E+008,2.453798800706863E-002,7.769347727298737E-002,-8.888611793518066E-001,-4.326992332935333E-001,2.453798800706863E-002,7.769347727298737E-002,-8.888611793518066E-001,-4.326992332935333E-001,
8.908000000000000E+008,3.467632085084915E-002,7.231622189283371E-002,-8.892667293548584E-001,-4.008795917034149E-001,3.467632085084915E-002,7.231622189283371E-002,-8.892667293548584E-001,-4.008795917034149E-001,
8.991666666666668E+008,3.917110338807106E-002,6.513838469982147E-002,-9.053026437759399E-001,-3.733884692192078E-001,3.917110338807106E-002,6.513838469982147E-002,-9.053026437759399E-001,-3.733884692192078E-001,
9.075333333333334E+008,4.031268507242203E-002,5.819444358348846E-002,-9.339787960052490E-001,-3.550178110599518E-001,4.031268507242203E-002,5.819444358348846E-002,-9.339787960052490E-001,-3.550178110599518E-001,
9.159000000000000E+008,3.857159987092018E-002,5.518497899174690E-002,-9.394412636756897E-001,-3.264198601245880E-001,3.857159987092018E-002,5.518497899174690E-002,-9.394412636756897E-001,-3.264198601245880E-001,
9.242666666666668E+008,3.406770527362824E-002,5.166076123714447E-002,-9.447872042655945E-001,-3.111229240894318E-001,3.406770527362824E-002,5.166076123714447E-002,-9.447872042655945E-001,-3.111229240894318E-001,
9.326333333333334E+008,2.730578929185867E-002,5.230150371789932E-002,-9.655758738517761E-001,-2.872542142868042E-001,2.730578929185867E-002,5.230150371789932E-002,-9.655758738517761E-001,-2.872542142868042E-001,
9.410000000000000E+008,2.454285509884358E-002,5.638011544942856E-002,-9.589150547981262E-001,-2.535636425018311E-001,2.454285509884358E-002,5.638011544942856E-002,-9.589150547981262E-001,-2.535636425018311E-001,
9.493666666666668E+008,2.467355690896511E-002,6.219515576958656E-002,-9.558606147766113E-001,-2.353147268295288E-001,2.467355690896511E-002,6.219515576958656E-002,-9.558606147766113E-001,-2.353147268295288E-001,
9.577333333333334E+008,2.821237407624722E-002,7.014144212007523E-002,-9.722038507461548E-001,-2.111484855413437E-001,2.821237407624722E-002,7.014144212007523E-002,-9.722038507461548E-001,-2.111484855413437E-001,
9.661000000000000E+008,3.833621367812157E-002,7.615289837121964E-002,-9.701955914497376E-001,-1.885481923818588E-001,3.833621367812157E-002,7.615289837121964E-002,-9.701955914497376E-001,-1.885481923818588E-001,
9.744666666666668E+008,4.709248989820480E-002,7.522428035736084E-002,-9.745124578475952E-001,-1.638605594635010E-001,4.709248989820480E-002,7.522428035736084E-002,-9.745124578475952E-001,-1.638605594635010E-001,
9.828333333333334E+008,6.133888661861420E-002,7.145155221223831E-002,-9.765452146530151E-001,-1.440510004758835E-001,6.133888661861420E-002,7.145155221223831E-002,-9.765452146530151E-001,-1.440510004758835E-001,
9.912000000000000E+008,6.939612329006195E-002,6.389480084180832E-002,-9.756268858909607E-001,-1.161088719964027E-001,6.939612329006195E-002,6.389480084180832E-002,-9.756268858909607E-001,-1.161088719964027E-001,
9.995666666666668E+008,7.614641636610031E-002,5.381982401013374E-002,-9.913970828056335E-001,-7.762208580970764E-002,7.614641636610031E-002,5.381982401013374E-002,-9.913970828056335E-001,-7.762208580970764E-002,
1.007933333333333E+009,7.668548822402954E-002,4.387822002172470E-002,-9.896656870841980E-001,-6.348732858896256E-002,7.668548822402954E-002,4.387822002172470E-002,-9.896656870841980E-001,-6.348732858896256E-002,
1.016300000000000E+009,7.116499543190002E-002,3.739076852798462E-002,-9.917820692062378E-001,-3.715363144874573E-002,7.116499543190002E-002,3.739076852798462E-002,-9.917820692062378E-001,-3.715363144874573E-002,
1.024666666666667E+009,6.465822458267212E-002,3.083665482699871E-002,-9.912792444229126E-001,-4.328522831201553E-003,6.465822458267212E-002,3.083665482699871E-002,-9.912792444229126E-001,-4.328522831201553E-003,
1.033033333333333E+009,5.841078236699104E-002,3.288746252655983E-002,-9.908502697944641E-001,1.461166609078646E-002,5.841078236699104E-002,3.288746252655983E-002,-9.908502697944641E-001,1.461166609078646E-002,
1.041400000000000E+009,5.300316959619522E-002,3.799025714397430E-002,-9.759154915809631E-001,5.265912786126137E-002,5.300316959619522E-002,3.799025714397430E-002,-9.759154915809631E-001,5.265912786126137E-002,
1.049766666666667E+009,5.328254774212837E-002,4.546389728784561E-002,-9.885226488113403E-001,7.323193550109863E-002,5.328254774212837E-002,4.546389728784561E-002,-9.885226488113403E-001,7.323193550109863E-002,
1.058133333333333E+009,5.950524285435677E-002,5.073569342494011E-002,-9.819632768630981E-001,9.173846989870071E-002,5.950524285435677E-002,5.073569342494011E-002,-9.819632768630981E-001,9.173846989870071E-002,
1.066500000000000E+009,7.139947265386581E-002,5.322426185011864E-002,-9.877985715866089E-001,1.305640190839768E-001,7.139947265386581E-002,5.322426185011864E-002,-9.877985715866089E-001,1.305640190839768E-001,
1.074866666666667E+009,8.195994794368744E-002,5.011903122067452E-002,-9.700539112091065E-001,1.480757147073746E-001,8.195994794368744E-002,5.011903122067452E-002,-9.700539112091065E-001,1.480757147073746E-001,
1.083233333333334E+009,9.349318593740463E-002,3.745552897453308E-002,-9.678546190261841E-001,1.678462922573090E-001,9.349318593740463E-002,3.745552897453308E-002,-9.678546190261841E-001,1.678462922573090E-001,
1.091600000000000E+009,9.983827173709869E-002,2.620967291295528E-002,-9.586400985717773E-001,1.896349787712097E-001,9.983827173709869E-002,2.620967291295528E-002,-9.586400985717773E-001,1.896349787712097E-001,
1.099966666666667E+009,1.016696989536285E-001,1.088003069162369E-002,-9.630372524261475E-001,2.285217046737671E-001,1.016696989536285E-001,1.088003069162369E-002,-9.630372524261475E-001,2.285217046737671E-001,
1.108333333333334E+009,9.293118119239807E-002,-4.945137770846486E-004,-9.412380456924439E-001,2.317809611558914E-001,9.293118119239807E-002,-4.945137770846486E-004,-9.412380456924439E-001,2.317809611558914E-001,
1.116700000000000E+009,7.927759736776352E-002,-2.224584110081196E-003,-9.395388960838318E-001,2.765896618366242E-001,7.927759736776352E-002,-2.224584110081196E-003,-9.395388960838318E-001,2.765896618366242E-001,
1.125066666666667E+009,6.772740930318832E-002,-1.966323703527451E-003,-9.448969960212708E-001,2.863982617855072E-001,6.772740930318832E-002,-1.966323703527451E-003,-9.448969960212708E-001,2.863982617855072E-001,
1.133433333333334E+009,5.917410925030708E-002,9.028999134898186E-003,-9.457914233207703E-001,3.124751448631287E-001,5.917410925030708E-002,9.028999134898186E-003,-9.457914233207703E-001,3.124751448631287E-001,
1.141800000000000E+009,5.876152589917183E-002,1.943396776914597E-002,-9.169889688491821E-001,3.332299888134003E-001,5.876152589917183E-002,1.943396776914597E-002,-9.169889688491821E-001,3.332299888134003E-001,
1.150166666666667E+009,6.583893299102783E-002,3.241681680083275E-002,-8.997364044189453E-001,3.651947975158691E-001,6.583893299102783E-002,3.241681680083275E-002,-8.997364044189453E-001,3.651947975158691E-001,
1.158533333333334E+009,8.020880073308945E-002,3.790607675909996E-002,-9.002332687377930E-001,3.889582455158234E-001,8.020880073308945E-002,3.790607675909996E-002,-9.002332687377930E-001,3.889582455158234E-001,
1.166900000000000E+009,9.957020729780197E-002,3.444636985659599E-002,-8.899987339973450E-001,4.221185743808746E-001,9.957020729780197E-002,3.444636985659599E-002,-8.899987339973450E-001,4.221185743808746E-001,
1.175266666666667E+009,1.135827079415321E-001,2.002931199967861E-002,-8.780937790870667E-001,4.262804687023163E-001,1.135827079415321E-001,2.002931199967861E-002,-8.780937790870667E-001,4.262804687023163E-001,
1.183633333333334E+009,1.245221793651581E-001,1.691998448222876E-003,-8.672408461570740E-001,4.646536707878113E-001,1.245221793651581E-001,1.691998448222876E-003,-8.672408461570740E-001,4.646536707878113E-001,
1.192000000000000E+009,1.246121674776077E-001,-2.071686275303364E-002,-8.568748235702515E-001,4.704789817333221E-001,1.246121674776077E-001,-2.071686275303364E-002,-8.568748235702515E-001,4.704789817333221E-001,
1.200366666666667E+009,1.133195534348488E-001,-3.748288378119469E-002,-8.480989336967468E-001,4.976654350757599E-001,1.133195534348488E-001,-3.748288378119469E-002,-8.480989336967468E-001,4.976654350757599E-001,
1.208733333333334E+009,9.764024615287781E-002,-4.802593216300011E-002,-8.432611227035523E-001,5.147057771682739E-001,9.764024615287781E-002,-4.802593216300011E-002,-8.432611227035523E-001,5.147057771682739E-001,
1.217100000000000E+009,7.955946028232575E-002,-4.589277505874634E-002,-8.276057243347168E-001,5.353215336799622E-001,7.955946028232575E-002,-4.589277505874634E-002,-8.276057243347168E-001,5.353215336799622E-001,
1.225466666666667E+009,6.833822280168533E-002,-3.884303569793701E-002,-8.029312491416931E-001,5.628173947334290E-001,6.833822280168533E-002,-3.884303569793701E-002,-8.029312491416931E-001,5.628173947334290E-001,
1.233833333333334E+009,6.182484701275826E-002,-2.334028854966164E-002,-7.863416671752930E-001,5.819500684738159E-001,6.182484701275826E-002,-2.334028854966164E-002,-7.863416671752930E-001,5.819500684738159E-001,
1.242200000000000E+009,6.585120409727097E-002,-8.246721699833870E-003,-7.720897197723389E-001,5.956805944442749E-001,6.585120409727097E-002,-8.246721699833870E-003,-7.720897197723389E-001,5.956805944442749E-001,
1.250566666666667E+009,8.034767210483551E-002,-1.004280406050384E-003,-7.430455684661865E-001,6.233755350112915E-001,8.034767210483551E-002,-1.004280406050384E-003,-7.430455684661865E-001,6.233755350112915E-001,
1.258933333333334E+009,9.754264354705811E-002,-3.732009558007121E-003,-7.539465427398682E-001,6.436433792114258E-001,9.754264354705811E-002,-3.732009558007121E-003,-7.539465427398682E-001,6.436433792114258E-001,
1.267300000000000E+009,1.135442480444908E-001,-1.764476485550404E-002,-7.310179471969605E-001,6.551797986030579E-001,1.135442480444908E-001,-1.764476485550404E-002,-7.310179471969605E-001,6.551797986030579E-001,
1.275666666666667E+009,1.223377734422684E-001,-3.853474557399750E-002,-6.959493160247803E-001,6.769481897354126E-001,1.223377734422684E-001,-3.853474557399750E-002,-6.959493160247803E-001,6.769481897354126E-001,
1.284033333333334E+009,1.195963099598885E-001,-6.277855485677719E-002,-6.903809309005737E-001,6.942834258079529E-001,1.195963099598885E-001,-6.277855485677719E-002,-6.903809309005737E-001,6.942834258079529E-001,
1.292400000000000E+009,1.069144904613495E-001,-8.280358463525772E-002,-6.786112785339356E-001,7.089681029319763E-001,1.069144904613495E-001,-8.280358463525772E-002,-6.786112785339356E-001,7.089681029319763E-001,
1.300766666666667E+009,8.707352727651596E-002,-9.201587736606598E-002,-6.555385589599609E-001,7.245149612426758E-001,8.707352727651596E-002,-9.201587736606598E-002,-6.555385589599609E-001,7.245149612426758E-001,
1.309133333333334E+009,6.463190168142319E-002,-9.164575487375259E-002,-6.451237201690674E-001,7.418227791786194E-001,6.463190168142319E-002,-9.164575487375259E-002,-6.451237201690674E-001,7.418227791786194E-001,
1.317500000000000E+009,5.137664452195168E-002,-8.133278787136078E-002,-6.191288828849793E-001,7.570117712020874E-001,5.137664452195168E-002,-8.133278787136078E-002,-6.191288828849793E-001,7.570117712020874E-001,
1.325866666666667E+009,4.475428536534309E-002,-6.336795538663864E-002,-6.045725941658020E-001,7.701865434646606E-001,4.475428536534309E-002,-6.336795538663864E-002,-6.045725941658020E-001,7.701865434646606E-001,
1.334233333333334E+009,5.046163126826286E-002,-4.785002768039703E-002,-5.755363702774048E-001,7.934535741806030E-001,5.046163126826286E-002,-4.785002768039703E-002,-5.755363702774048E-001,7.934535741806030E-001,
1.342600000000000E+009,6.301613897085190E-002,-4.136689752340317E-002,-5.556704998016357E-001,8.115410804748535E-001,6.301613897085190E-002,-4.136689752340317E-002,-5.556704998016357E-001,8.115410804748535E-001,
1.350966666666667E+009,7.930487394332886E-002,-4.512141644954681E-002,-5.241290926933289E-001,8.343579769134522E-001,7.930487394332886E-002,-4.512141644954681E-002,-5.241290926933289E-001,8.343579769134522E-001,
1.359333333333334E+009,9.347470104694367E-002,-5.913575738668442E-002,-5.131952166557312E-001,8.370171785354614E-001,9.347470104694367E-002,-5.913575738668442E-002,-5.131952166557312E-001,8.370171785354614E-001,
1.367700000000000E+009,9.301555901765823E-002,-8.161138743162155E-002,-4.949072599411011E-001,8.432412147521973E-001,9.301555901765823E-002,-8.161138743162155E-002,-4.949072599411011E-001,8.432412147521973E-001,
1.376066666666667E+009,8.604925125837326E-002,-1.021398380398750E-001,-4.791213870048523E-001,8.587210774421692E-001,8.604925125837326E-002,-1.021398380398750E-001,-4.791213870048523E-001,8.587210774421692E-001,
1.384433333333334E+009,6.687816232442856E-002,-1.205923780798912E-001,-4.540056586265564E-001,8.802012205123901E-001,6.687816232442856E-002,-1.205923780798912E-001,-4.540056586265564E-001,8.802012205123901E-001,
1.392800000000000E+009,4.350434988737106E-002,-1.248533874750137E-001,-4.414121210575104E-001,8.727033138275147E-001,4.350434988737106E-002,-1.248533874750137E-001,-4.414121210575104E-001,8.727033138275147E-001,
1.401166666666667E+009,2.189284376800060E-002,-1.177167668938637E-001,-4.182549715042114E-001,8.927065730094910E-001,2.189284376800060E-002,-1.177167668938637E-001,-4.182549715042114E-001,8.927065730094910E-001,
1.409533333333334E+009,6.811873055994511E-003,-1.017409861087799E-001,-3.889937400817871E-001,9.052963852882385E-001,6.811873055994511E-003,-1.017409861087799E-001,-3.889937400817871E-001,9.052963852882385E-001,
1.417900000000000E+009,3.887581173330545E-003,-7.879392057657242E-002,-3.740110993385315E-001,9.009221792221069E-001,3.887581173330545E-003,-7.879392057657242E-002,-3.740110993385315E-001,9.009221792221069E-001,
1.426266666666667E+009,1.377306692302227E-002,-6.352174282073975E-002,-3.395686745643616E-001,9.263650178909302E-001,1.377306692302227E-002,-6.352174282073975E-002,-3.395686745643616E-001,9.263650178909302E-001,
1.434633333333334E+009,3.078359924256802E-002,-5.424309521913528E-002,-3.070949912071228E-001,9.347862005233765E-001,3.078359924256802E-002,-5.424309521913528E-002,-3.070949912071228E-001,9.347862005233765E-001,
1.443000000000000E+009,4.835324734449387E-002,-5.760308727622032E-002,-2.895642518997192E-001,9.394742846488953E-001,4.835324734449387E-002,-5.760308727622032E-002,-2.895642518997192E-001,9.394742846488953E-001,
1.451366666666667E+009,6.170643866062164E-002,-7.123351842164993E-002,-2.578107714653015E-001,9.416793584823608E-001,6.170643866062164E-002,-7.123351842164993E-002,-2.578107714653015E-001,9.416793584823608E-001,
1.459733333333334E+009,6.562559306621552E-002,-9.486695379018784E-002,-2.392567694187164E-001,9.422842860221863E-001,6.562559306621552E-002,-9.486695379018784E-002,-2.392567694187164E-001,9.422842860221863E-001,
