% Version 1.00
%
%freq[Hz],re:Trc1_S11,im:Trc1_S11,re:Trc2_S21,im:Trc2_S21,re:Trc3_S11,im:Trc3_S11,re:Trc4_S21,im:Trc4_S21,
6.900000000000000E+008,-3.215513005852699E-002,5.672229081392288E-002,-4.970893859863281E-001,-8.496475815773010E-001,-3.215513005852699E-002,5.672229081392288E-002,-4.970893859863281E-001,-8.496475815773010E-001,
6.983666666666666E+008,-2.166008949279785E-002,5.807916820049286E-002,-5.222789049148560E-001,-8.418229818344116E-001,-2.166008949279785E-002,5.807916820049286E-002,-5.222789049148560E-001,-8.418229818344116E-001,
7.067333333333334E+008,-1.495816186070442E-002,5.288170650601387E-002,-5.674190521240234E-001,-7.780418395996094E-001,-1.495816186070442E-002,5.288170650601387E-002,-5.674190521240234E-001,-7.780418395996094E-001,
7.151000000000000E+008,-1.331162918359041E-002,4.556019231677055E-002,-5.906435847282410E-001,-7.920244336128235E-001,-1.331162918359041E-002,4.556019231677055E-002,-5.906435847282410E-001,-7.920244336128235E-001,
7.234666666666666E+008,-1.563378423452377E-002,4.064989089965820E-002,-5.981460213661194E-001,-7.763888239860535E-001,-1.563378423452377E-002,4.064989089965820E-002,-5.981460213661194E-001,-7.763888239860535E-001,
7.318333333333334E+008,-2.197756990790367E-002,3.902486711740494E-002,-6.122868061065674E-001,-7.802446484565735E-001,-2.197756990790367E-002,3.902486711740494E-002,-6.122868061065674E-001,-7.802446484565735E-001,
7.402000000000000E+008,-2.749382704496384E-002,3.929892554879189E-002,-6.603559851646423E-001,-7.564457058906555E-001,-2.749382704496384E-002,3.929892554879189E-002,-6.603559851646423E-001,-7.564457058906555E-001,
7.485666666666666E+008,-3.383058682084084E-002,4.620775580406189E-002,-6.570060849189758E-001,-7.579880952835083E-001,-3.383058682084084E-002,4.620775580406189E-002,-6.570060849189758E-001,-7.579880952835083E-001,
7.569333333333334E+008,-3.365602344274521E-002,5.412724986672401E-002,-6.647962331771851E-001,-7.340797781944275E-001,-3.365602344274521E-002,5.412724986672401E-002,-6.647962331771851E-001,-7.340797781944275E-001,
7.653000000000000E+008,-2.775302529335022E-002,6.193682923913002E-002,-6.839511990547180E-001,-7.123140096664429E-001,-2.775302529335022E-002,6.193682923913002E-002,-6.839511990547180E-001,-7.123140096664429E-001,
7.736666666666666E+008,-2.012785337865353E-002,6.831117719411850E-002,-7.149077653884888E-001,-6.901638507843018E-001,-2.012785337865353E-002,6.831117719411850E-002,-7.149077653884888E-001,-6.901638507843018E-001,
7.820333333333334E+008,-1.003440096974373E-002,7.092366367578507E-002,-7.271287441253662E-001,-6.770676970481873E-001,-1.003440096974373E-002,7.092366367578507E-002,-7.271287441253662E-001,-6.770676970481873E-001,
7.904000000000000E+008,1.360464724712074E-003,7.013948261737824E-002,-7.353414893150330E-001,-6.546677350997925E-001,1.360464724712074E-003,7.013948261737824E-002,-7.353414893150330E-001,-6.546677350997925E-001,
7.987666666666666E+008,6.544395349919796E-003,6.444521248340607E-002,-7.646445035934448E-001,-6.364000439643860E-001,6.544395349919796E-003,6.444521248340607E-002,-7.646445035934448E-001,-6.364000439643860E-001,
8.071333333333334E+008,1.045500021427870E-002,5.928634852170944E-002,-7.704862356185913E-001,-6.211780905723572E-001,1.045500021427870E-002,5.928634852170944E-002,-7.704862356185913E-001,-6.211780905723572E-001,
8.155000000000000E+008,5.449813324958086E-003,5.327478051185608E-002,-7.960914373397827E-001,-6.011608242988586E-001,5.449813324958086E-003,5.327478051185608E-002,-7.960914373397827E-001,-6.011608242988586E-001,
8.238666666666666E+008,2.548182616010308E-003,4.920351505279541E-002,-7.960821986198425E-001,-5.728813409805298E-001,2.548182616010308E-003,4.920351505279541E-002,-7.960821986198425E-001,-5.728813409805298E-001,
8.322333333333334E+008,-4.086916334927082E-003,5.005086213350296E-002,-8.194600343704224E-001,-5.513147711753845E-001,-4.086916334927082E-003,5.005086213350296E-002,-8.194600343704224E-001,-5.513147711753845E-001,
8.406000000000000E+008,-8.365185000002384E-003,5.402069911360741E-002,-8.297947049140930E-001,-5.377264022827148E-001,-8.365185000002384E-003,5.402069911360741E-002,-8.297947049140930E-001,-5.377264022827148E-001,
8.489666666666668E+008,-1.110501121729612E-002,6.137041002511978E-002,-8.411672711372376E-001,-5.222301483154297E-001,-1.110501121729612E-002,6.137041002511978E-002,-8.411672711372376E-001,-5.222301483154297E-001,
8.573333333333334E+008,-8.268986828625202E-003,6.906967610120773E-002,-8.547097444534302E-001,-4.828146696090698E-001,-8.268986828625202E-003,6.906967610120773E-002,-8.547097444534302E-001,-4.828146696090698E-001,
8.657000000000000E+008,1.803372171707451E-003,7.584710419178009E-002,-8.746108412742615E-001,-4.651542603969574E-001,1.803372171707451E-003,7.584710419178009E-002,-8.746108412742615E-001,-4.651542603969574E-001,
8.740666666666668E+008,1.032585091888905E-002,7.799896597862244E-002,-8.714320659637451E-001,-4.476929605007172E-001,1.032585091888905E-002,7.799896597862244E-002,-8.714320659637451E-001,-4.476929605007172E-001,
8.824333333333334E+008,2.105563133955002E-002,7.728385180234909E-002,-8.884336948394775E-001,-4.367081522941589E-001,2.105563133955002E-002,7.728385180234909E-002,-8.884336948394775E-001,-4.367081522941589E-001,
8.908000000000000E+008,3.123405389487743E-002,7.222815603017807E-002,-8.890031576156616E-001,-4.034285545349121E-001,3.123405389487743E-002,7.222815603017807E-002,-8.890031576156616E-001,-4.034285545349121E-001,
8.991666666666668E+008,3.511720895767212E-002,6.512314826250076E-002,-9.047593474388123E-001,-3.756324350833893E-001,3.511720895767212E-002,6.512314826250076E-002,-9.047593474388123E-001,-3.756324350833893E-001,
9.075333333333334E+008,3.651267290115356E-002,5.835707485675812E-002,-9.338294267654419E-001,-3.571292459964752E-001,3.651267290115356E-002,5.835707485675812E-002,-9.338294267654419E-001,-3.571292459964752E-001,
9.159000000000000E+008,3.440544009208679E-002,5.537516996264458E-002,-9.393603801727295E-001,-3.290659487247467E-001,3.440544009208679E-002,5.537516996264458E-002,-9.393603801727295E-001,-3.290659487247467E-001,
9.242666666666668E+008,3.003849089145660E-002,5.211482942104340E-002,-9.431658387184143E-001,-3.141273260116577E-001,3.003849089145660E-002,5.211482942104340E-002,-9.431658387184143E-001,-3.141273260116577E-001,
9.326333333333334E+008,2.280173078179359E-002,5.268074944615364E-002,-9.657920002937317E-001,-2.915710806846619E-001,2.280173078179359E-002,5.268074944615364E-002,-9.657920002937317E-001,-2.915710806846619E-001,
9.410000000000000E+008,2.021016366779804E-002,5.713401362299919E-002,-9.602958559989929E-001,-2.570004761219025E-001,2.021016366779804E-002,5.713401362299919E-002,-9.602958559989929E-001,-2.570004761219025E-001,
9.493666666666668E+008,2.042804658412933E-002,6.322513520717621E-002,-9.559040665626526E-001,-2.373404204845429E-001,2.042804658412933E-002,6.322513520717621E-002,-9.559040665626526E-001,-2.373404204845429E-001,
9.577333333333334E+008,2.388898655772209E-002,7.104928791522980E-002,-9.719825387001038E-001,-2.131976932287216E-001,2.388898655772209E-002,7.104928791522980E-002,-9.719825387001038E-001,-2.131976932287216E-001,
9.661000000000000E+008,3.372444584965706E-002,7.685008645057678E-002,-9.676563143730164E-001,-1.898248195648193E-001,3.372444584965706E-002,7.685008645057678E-002,-9.676563143730164E-001,-1.898248195648193E-001,
9.744666666666668E+008,4.272077977657318E-002,7.619382441043854E-002,-9.736231565475464E-001,-1.639002859592438E-001,4.272077977657318E-002,7.619382441043854E-002,-9.736231565475464E-001,-1.639002859592438E-001,
9.828333333333334E+008,5.704127624630928E-002,7.228352129459381E-002,-9.767908453941345E-001,-1.448278427124023E-001,5.704127624630928E-002,7.228352129459381E-002,-9.767908453941345E-001,-1.448278427124023E-001,
9.912000000000000E+008,6.527338176965714E-002,6.523617357015610E-002,-9.757579565048218E-001,-1.176848709583283E-001,6.527338176965714E-002,6.523617357015610E-002,-9.757579565048218E-001,-1.176848709583283E-001,
9.995666666666668E+008,7.200381159782410E-002,5.576939135789871E-002,-9.917210936546326E-001,-8.079206943511963E-002,7.200381159782410E-002,5.576939135789871E-002,-9.917210936546326E-001,-8.079206943511963E-002,
1.007933333333333E+009,7.263561338186264E-002,4.606958106160164E-002,-9.919618964195252E-001,-6.688381731510162E-002,7.263561338186264E-002,4.606958106160164E-002,-9.919618964195252E-001,-6.688381731510162E-002,
1.016300000000000E+009,6.720272451639175E-002,3.948219120502472E-002,-9.951629638671875E-001,-4.189147427678108E-002,6.720272451639175E-002,3.948219120502472E-002,-9.951629638671875E-001,-4.189147427678108E-002,
1.024666666666667E+009,6.047234311699867E-002,3.335563465952873E-002,-9.947610497474670E-001,-7.687960751354694E-003,6.047234311699867E-002,3.335563465952873E-002,-9.947610497474670E-001,-7.687960751354694E-003,
1.033033333333333E+009,5.418363586068153E-002,3.536184504628182E-002,-9.953660964965820E-001,9.214742109179497E-003,5.418363586068153E-002,3.536184504628182E-002,-9.953660964965820E-001,9.214742109179497E-003,
1.041400000000000E+009,4.888996854424477E-002,4.062245786190033E-002,-9.810907244682312E-001,5.242167413234711E-002,4.888996854424477E-002,4.062245786190033E-002,-9.810907244682312E-001,5.242167413234711E-002,
1.049766666666667E+009,4.905842989683151E-002,4.761234298348427E-002,-9.923621416091919E-001,6.876898556947708E-002,4.905842989683151E-002,4.761234298348427E-002,-9.923621416091919E-001,6.876898556947708E-002,
1.058133333333333E+009,5.536054074764252E-002,5.342303216457367E-002,-9.857496619224548E-001,8.842620998620987E-002,5.536054074764252E-002,5.342303216457367E-002,-9.857496619224548E-001,8.842620998620987E-002,
1.066500000000000E+009,6.740523129701614E-002,5.607234686613083E-002,-9.917516112327576E-001,1.276916116476059E-001,6.740523129701614E-002,5.607234686613083E-002,-9.917516112327576E-001,1.276916116476059E-001,
1.074866666666667E+009,7.824488729238510E-002,5.322529375553131E-002,-9.735500216484070E-001,1.458905935287476E-001,7.824488729238510E-002,5.322529375553131E-002,-9.735500216484070E-001,1.458905935287476E-001,
1.083233333333334E+009,8.985569328069687E-002,4.034109786152840E-002,-9.717515110969544E-001,1.678226143121719E-001,8.985569328069687E-002,4.034109786152840E-002,-9.717515110969544E-001,1.678226143121719E-001,
1.091600000000000E+009,9.648917615413666E-002,2.978564426302910E-002,-9.622236490249634E-001,1.880767494440079E-001,9.648917615413666E-002,2.978564426302910E-002,-9.622236490249634E-001,1.880767494440079E-001,
1.099966666666667E+009,9.863353520631790E-002,1.471223868429661E-002,-9.667373299598694E-001,2.253381162881851E-001,9.863353520631790E-002,1.471223868429661E-002,-9.667373299598694E-001,2.253381162881851E-001,
1.108333333333334E+009,8.968083560466766E-002,3.526055254042149E-003,-9.451436996459961E-001,2.282888442277908E-001,8.968083560466766E-002,3.526055254042149E-003,-9.451436996459961E-001,2.282888442277908E-001,
1.116700000000000E+009,7.618592679500580E-002,1.815588795579970E-003,-9.437986612319946E-001,2.730825245380402E-001,7.618592679500580E-002,1.815588795579970E-003,-9.437986612319946E-001,2.730825245380402E-001,
1.125066666666667E+009,6.426700204610825E-002,1.831552363000810E-003,-9.496005773544312E-001,2.863253951072693E-001,6.426700204610825E-002,1.831552363000810E-003,-9.496005773544312E-001,2.863253951072693E-001,
1.133433333333334E+009,5.558589845895767E-002,1.308700814843178E-002,-9.485661983489990E-001,3.098997771739960E-001,5.558589845895767E-002,1.308700814843178E-002,-9.485661983489990E-001,3.098997771739960E-001,
1.141800000000000E+009,5.530628189444542E-002,2.379781380295754E-002,-9.221334457397461E-001,3.330154418945313E-001,5.530628189444542E-002,2.379781380295754E-002,-9.221334457397461E-001,3.330154418945313E-001,
1.150166666666667E+009,6.269737333059311E-002,3.704226389527321E-002,-9.016085267066956E-001,3.613024353981018E-001,6.269737333059311E-002,3.704226389527321E-002,-9.016085267066956E-001,3.613024353981018E-001,
1.158533333333334E+009,7.706458866596222E-002,4.200065135955811E-002,-9.054071307182312E-001,3.874103426933289E-001,7.706458866596222E-002,4.200065135955811E-002,-9.054071307182312E-001,3.874103426933289E-001,
1.166900000000000E+009,9.661174565553665E-002,3.880653530359268E-002,-8.946051597595215E-001,4.200902283191681E-001,9.661174565553665E-002,3.880653530359268E-002,-8.946051597595215E-001,4.200902283191681E-001,
1.175266666666667E+009,1.112459599971771E-001,2.507387846708298E-002,-8.842375874519348E-001,4.250741600990295E-001,1.112459599971771E-001,2.507387846708298E-002,-8.842375874519348E-001,4.250741600990295E-001,
1.183633333333334E+009,1.223507076501846E-001,6.729137618094683E-003,-8.716983199119568E-001,4.615235924720764E-001,1.223507076501846E-001,6.729137618094683E-003,-8.716983199119568E-001,4.615235924720764E-001,
1.192000000000000E+009,1.225485801696777E-001,-1.544946711510420E-002,-8.615410327911377E-001,4.686952829360962E-001,1.225485801696777E-001,-1.544946711510420E-002,-8.615410327911377E-001,4.686952829360962E-001,
1.200366666666667E+009,1.114796772599220E-001,-3.251688554883003E-002,-8.541897535324097E-001,4.971922636032105E-001,1.114796772599220E-001,-3.251688554883003E-002,-8.541897535324097E-001,4.971922636032105E-001,
1.208733333333334E+009,9.584832191467285E-002,-4.290385544300079E-002,-8.472884893417358E-001,5.125672221183777E-001,9.584832191467285E-002,-4.290385544300079E-002,-8.472884893417358E-001,5.125672221183777E-001,
1.217100000000000E+009,7.782930880784988E-002,-4.061517119407654E-002,-8.343110084533691E-001,5.357242226600647E-001,7.782930880784988E-002,-4.061517119407654E-002,-8.343110084533691E-001,5.357242226600647E-001,
1.225466666666667E+009,6.665151566267014E-002,-3.322132676839829E-002,-8.088555335998535E-001,5.620901584625244E-001,6.665151566267014E-002,-3.322132676839829E-002,-8.088555335998535E-001,5.620901584625244E-001,
1.233833333333334E+009,5.990298092365265E-002,-1.764098368585110E-002,-7.919931411743164E-001,5.792657136917114E-001,5.990298092365265E-002,-1.764098368585110E-002,-7.919931411743164E-001,5.792657136917114E-001,
1.242200000000000E+009,6.415172666311264E-002,-2.498843474313617E-003,-7.771414518356323E-001,5.938841104507446E-001,6.415172666311264E-002,-2.498843474313617E-003,-7.771414518356323E-001,5.938841104507446E-001,
1.250566666666667E+009,7.897070795297623E-002,4.925360437482595E-003,-7.491152882575989E-001,6.225185394287109E-001,7.897070795297623E-002,4.925360437482595E-003,-7.491152882575989E-001,6.225185394287109E-001,
1.258933333333334E+009,9.599336236715317E-002,2.472321037203074E-003,-7.579916715621948E-001,6.431004405021668E-001,9.599336236715317E-002,2.472321037203074E-003,-7.579916715621948E-001,6.431004405021668E-001,
1.267300000000000E+009,1.123726665973663E-001,-1.164936739951372E-002,-7.361429929733276E-001,6.537809967994690E-001,1.123726665973663E-001,-1.164936739951372E-002,-7.361429929733276E-001,6.537809967994690E-001,
1.275666666666667E+009,1.215384304523468E-001,-3.243407234549522E-002,-7.006448507308960E-001,6.772705912590027E-001,1.215384304523468E-001,-3.243407234549522E-002,-7.006448507308960E-001,6.772705912590027E-001,
1.284033333333334E+009,1.192817687988281E-001,-5.647986009716988E-002,-6.940291523933411E-001,6.918191313743591E-001,1.192817687988281E-001,-5.647986009716988E-002,-6.940291523933411E-001,6.918191313743591E-001,
1.292400000000000E+009,1.071564480662346E-001,-7.642036676406860E-002,-6.843767166137695E-001,7.101904153823853E-001,1.071564480662346E-001,-7.642036676406860E-002,-6.843767166137695E-001,7.101904153823853E-001,
1.300766666666667E+009,8.748225122690201E-002,-8.585137128829956E-002,-6.594521999359131E-001,7.255579829216003E-001,8.748225122690201E-002,-8.585137128829956E-002,-6.594521999359131E-001,7.255579829216003E-001,
1.309133333333334E+009,6.480645388364792E-002,-8.529994636774063E-002,-6.494110822677612E-001,7.417782545089722E-001,6.480645388364792E-002,-8.529994636774063E-002,-6.494110822677612E-001,7.417782545089722E-001,
1.317500000000000E+009,5.164038017392159E-002,-7.515048980712891E-002,-6.231184601783752E-001,7.583620548248291E-001,5.164038017392159E-002,-7.515048980712891E-002,-6.231184601783752E-001,7.583620548248291E-001,
1.325866666666667E+009,4.511567577719688E-002,-5.697307363152504E-002,-6.102985143661499E-001,7.745522856712341E-001,4.511567577719688E-002,-5.697307363152504E-002,-6.102985143661499E-001,7.745522856712341E-001,
1.334233333333334E+009,5.115700513124466E-002,-4.156633839011192E-002,-5.806486010551453E-001,7.953157424926758E-001,5.115700513124466E-002,-4.156633839011192E-002,-5.806486010551453E-001,7.953157424926758E-001,
1.342600000000000E+009,6.348527967929840E-002,-3.467193245887756E-002,-5.594193339347839E-001,8.130665421485901E-001,6.348527967929840E-002,-3.467193245887756E-002,-5.594193339347839E-001,8.130665421485901E-001,
1.350966666666667E+009,7.999861240386963E-002,-3.876331448554993E-002,-5.283342599868774E-001,8.371557593345642E-001,7.999861240386963E-002,-3.876331448554993E-002,-5.283342599868774E-001,8.371557593345642E-001,
1.359333333333334E+009,9.463161975145340E-002,-5.256950110197067E-002,-5.177513360977173E-001,8.390492200851440E-001,9.463161975145340E-002,-5.256950110197067E-002,-5.177513360977173E-001,8.390492200851440E-001,
1.367700000000000E+009,9.433244168758392E-002,-7.551212608814240E-002,-5.006703734397888E-001,8.451824188232422E-001,9.433244168758392E-002,-7.551212608814240E-002,-5.006703734397888E-001,8.451824188232422E-001,
1.376066666666667E+009,8.786030113697052E-002,-9.586813300848007E-002,-4.852043688297272E-001,8.617799282073975E-001,8.786030113697052E-002,-9.586813300848007E-002,-4.852043688297272E-001,8.617799282073975E-001,
1.384433333333334E+009,6.869618594646454E-002,-1.144518777728081E-001,-4.590138494968414E-001,8.807445764541626E-001,6.869618594646454E-002,-1.144518777728081E-001,-4.590138494968414E-001,8.807445764541626E-001,
1.392800000000000E+009,4.549236595630646E-002,-1.189308315515518E-001,-4.461506009101868E-001,8.772485852241516E-001,4.549236595630646E-002,-1.189308315515518E-001,-4.461506009101868E-001,8.772485852241516E-001,
1.401166666666667E+009,2.423549629747868E-002,-1.113867238163948E-001,-4.232571721076965E-001,8.953734040260315E-001,2.423549629747868E-002,-1.113867238163948E-001,-4.232571721076965E-001,8.953734040260315E-001,
1.409533333333334E+009,9.257056750357151E-003,-9.575933963060379E-002,-3.928807079792023E-001,9.057735204696655E-001,9.257056750357151E-003,-9.575933963060379E-002,-3.928807079792023E-001,9.057735204696655E-001,
1.417900000000000E+009,6.478429306298494E-003,-7.262814790010452E-002,-3.790386021137238E-001,9.027348160743713E-001,6.478429306298494E-003,-7.262814790010452E-002,-3.790386021137238E-001,9.027348160743713E-001,
1.426266666666667E+009,1.658721826970577E-002,-5.756009742617607E-002,-3.446484208106995E-001,9.257014393806458E-001,1.658721826970577E-002,-5.756009742617607E-002,-3.446484208106995E-001,9.257014393806458E-001,
1.434633333333334E+009,3.392750769853592E-002,-4.758903384208679E-002,-3.117457032203674E-001,9.379830956459045E-001,3.392750769853592E-002,-4.758903384208679E-002,-3.117457032203674E-001,9.379830956459045E-001,
1.443000000000000E+009,5.137468501925468E-002,-5.094453319907188E-002,-2.937296330928803E-001,9.403250813484192E-001,5.137468501925468E-002,-5.094453319907188E-002,-2.937296330928803E-001,9.403250813484192E-001,
1.451366666666667E+009,6.458073109388351E-002,-6.503240764141083E-002,-2.596001625061035E-001,9.437847733497620E-001,6.458073109388351E-002,-6.503240764141083E-002,-2.596001625061035E-001,9.437847733497620E-001,
1.459733333333334E+009,6.979765743017197E-002,-8.891259133815765E-002,-2.442189753055573E-001,9.470281004905701E-001,6.979765743017197E-002,-8.891259133815765E-002,-2.442189753055573E-001,9.470281004905701E-001,
