% Version 1.00
%
%freq[Hz],re:Trc1_S11,im:Trc1_S11,re:Trc2_S21,im:Trc2_S21,re:Trc3_S11,im:Trc3_S11,re:Trc4_S21,im:Trc4_S21,
6.900000000000000E+008,-5.769161507487297E-002,1.564234681427479E-002,-5.003515481948853E-001,-8.483513593673706E-001,-5.769161507487297E-002,1.564234681427479E-002,-5.003515481948853E-001,-8.483513593673706E-001,
6.983666666666666E+008,-4.893556982278824E-002,1.618718914687634E-002,-5.239917635917664E-001,-8.390434384346008E-001,-4.893556982278824E-002,1.618718914687634E-002,-5.239917635917664E-001,-8.390434384346008E-001,
7.067333333333334E+008,-4.325933381915093E-002,1.091006398200989E-002,-5.682857036590576E-001,-7.773203849792481E-001,-4.325933381915093E-002,1.091006398200989E-002,-5.682857036590576E-001,-7.773203849792481E-001,
7.151000000000000E+008,-4.397783055901527E-002,3.657387336716056E-003,-5.884996652603149E-001,-7.906876802444458E-001,-4.397783055901527E-002,3.657387336716056E-003,-5.884996652603149E-001,-7.906876802444458E-001,
7.234666666666666E+008,-4.810672998428345E-002,-1.205764594487846E-003,-5.998154282569885E-001,-7.783976793289185E-001,-4.810672998428345E-002,-1.205764594487846E-003,-5.998154282569885E-001,-7.783976793289185E-001,
7.318333333333334E+008,-5.629468336701393E-002,-3.049454651772976E-003,-6.150631308555603E-001,-7.762237191200256E-001,-5.629468336701393E-002,-3.049454651772976E-003,-6.150631308555603E-001,-7.762237191200256E-001,
7.402000000000000E+008,-6.343847513198853E-002,-2.200092887505889E-003,-6.589817404747009E-001,-7.585638165473938E-001,-6.343847513198853E-002,-2.200092887505889E-003,-6.589817404747009E-001,-7.585638165473938E-001,
7.485666666666666E+008,-7.142807543277741E-002,4.580471664667130E-003,-6.576288342475891E-001,-7.550714612007141E-001,-7.142807543277741E-002,4.580471664667130E-003,-6.576288342475891E-001,-7.550714612007141E-001,
7.569333333333334E+008,-7.364259660243988E-002,1.292742323130369E-002,-6.640612483024597E-001,-7.341079711914063E-001,-7.364259660243988E-002,1.292742323130369E-002,-6.640612483024597E-001,-7.341079711914063E-001,
7.653000000000000E+008,-6.977096945047379E-002,2.112844027578831E-002,-6.832358837127686E-001,-7.140693068504334E-001,-6.977096945047379E-002,2.112844027578831E-002,-6.832358837127686E-001,-7.140693068504334E-001,
7.736666666666666E+008,-6.336084008216858E-002,2.724629640579224E-002,-7.155184149742127E-001,-6.882880330085754E-001,-6.336084008216858E-002,2.724629640579224E-002,-7.155184149742127E-001,-6.882880330085754E-001,
7.820333333333334E+008,-5.530370771884918E-002,3.046931698918343E-002,-7.277622818946838E-001,-6.762483119964600E-001,-5.530370771884918E-002,3.046931698918343E-002,-7.277622818946838E-001,-6.762483119964600E-001,
7.904000000000000E+008,-4.615953937172890E-002,2.972764521837235E-002,-7.323321104049683E-001,-6.546760201454163E-001,-4.615953937172890E-002,2.972764521837235E-002,-7.323321104049683E-001,-6.546760201454163E-001,
7.987666666666666E+008,-4.242064803838730E-002,2.448653616011143E-002,-7.669919133186340E-001,-6.334592700004578E-001,-4.242064803838730E-002,2.448653616011143E-002,-7.669919133186340E-001,-6.334592700004578E-001,
8.071333333333334E+008,-4.059171304106712E-002,2.004179172217846E-002,-7.723584771156311E-001,-6.216127276420593E-001,-4.059171304106712E-002,2.004179172217846E-002,-7.723584771156311E-001,-6.216127276420593E-001,
8.155000000000000E+008,-4.757108911871910E-002,1.403003651648760E-002,-7.953927516937256E-001,-5.993296504020691E-001,-4.757108911871910E-002,1.403003651648760E-002,-7.953927516937256E-001,-5.993296504020691E-001,
8.238666666666666E+008,-5.249715223908424E-002,1.147161982953548E-002,-7.962104082107544E-001,-5.703896284103394E-001,-5.249715223908424E-002,1.147161982953548E-002,-7.962104082107544E-001,-5.703896284103394E-001,
8.322333333333334E+008,-6.077386066317558E-002,1.277295127511025E-002,-8.175061941146851E-001,-5.509226918220520E-001,-6.077386066317558E-002,1.277295127511025E-002,-8.175061941146851E-001,-5.509226918220520E-001,
8.406000000000000E+008,-6.717797368764877E-002,1.830385811626911E-002,-8.282405138015747E-001,-5.377051234245300E-001,-6.717797368764877E-002,1.830385811626911E-002,-8.282405138015747E-001,-5.377051234245300E-001,
8.489666666666668E+008,-7.196217775344849E-002,2.564462833106518E-002,-8.381354212760925E-001,-5.228789448738098E-001,-7.196217775344849E-002,2.564462833106518E-002,-8.381354212760925E-001,-5.228789448738098E-001,
8.573333333333334E+008,-7.016062736511231E-002,3.389411419630051E-002,-8.553019165992737E-001,-4.824722707271576E-001,-7.016062736511231E-002,3.389411419630051E-002,-8.553019165992737E-001,-4.824722707271576E-001,
8.657000000000000E+008,-6.356285512447357E-002,4.246663674712181E-002,-8.722392916679382E-001,-4.627256095409393E-001,-6.356285512447357E-002,4.246663674712181E-002,-8.722392916679382E-001,-4.627256095409393E-001,
8.740666666666668E+008,-5.612942203879356E-002,4.573270305991173E-002,-8.705241084098816E-001,-4.506418108940125E-001,-5.612942203879356E-002,4.573270305991173E-002,-8.705241084098816E-001,-4.506418108940125E-001,
8.824333333333334E+008,-4.698454588651657E-002,4.558248445391655E-002,-8.884139060974121E-001,-4.359559416770935E-001,-4.698454588651657E-002,4.558248445391655E-002,-8.884139060974121E-001,-4.359559416770935E-001,
8.908000000000000E+008,-3.894939646124840E-002,4.184261336922646E-002,-8.890438079833984E-001,-4.035388529300690E-001,-3.894939646124840E-002,4.184261336922646E-002,-8.890438079833984E-001,-4.035388529300690E-001,
8.991666666666668E+008,-3.615186363458633E-002,3.571606427431107E-002,-9.044651985168457E-001,-3.762655556201935E-001,-3.615186363458633E-002,3.571606427431107E-002,-9.044651985168457E-001,-3.762655556201935E-001,
9.075333333333334E+008,-3.802215307950974E-002,3.043251670897007E-002,-9.346413016319275E-001,-3.574160635471344E-001,-3.802215307950974E-002,3.043251670897007E-002,-9.346413016319275E-001,-3.574160635471344E-001,
9.159000000000000E+008,-4.221581295132637E-002,2.952650748193264E-002,-9.388550519943237E-001,-3.284800350666046E-001,-4.221581295132637E-002,2.952650748193264E-002,-9.388550519943237E-001,-3.284800350666046E-001,
9.242666666666668E+008,-4.832510277628899E-002,2.804709970951080E-002,-9.439696073532105E-001,-3.123955428600311E-001,-4.832510277628899E-002,2.804709970951080E-002,-9.439696073532105E-001,-3.123955428600311E-001,
9.326333333333334E+008,-5.679202079772949E-002,3.026232309639454E-002,-9.643176198005676E-001,-2.893159687519074E-001,-5.679202079772949E-002,3.026232309639454E-002,-9.643176198005676E-001,-2.893159687519074E-001,
9.410000000000000E+008,-6.105358526110649E-002,3.617736697196960E-002,-9.568841457366943E-001,-2.563953399658203E-001,-6.105358526110649E-002,3.617736697196960E-002,-9.568841457366943E-001,-2.563953399658203E-001,
9.493666666666668E+008,-6.289879232645035E-002,4.411630704998970E-002,-9.554712176322937E-001,-2.386891394853592E-001,-6.289879232645035E-002,4.411630704998970E-002,-9.554712176322937E-001,-2.386891394853592E-001,
9.577333333333334E+008,-6.059501320123673E-002,5.331299826502800E-002,-9.701269865036011E-001,-2.161011695861816E-001,-6.059501320123673E-002,5.331299826502800E-002,-9.701269865036011E-001,-2.161011695861816E-001,
9.661000000000000E+008,-5.334620177745819E-002,6.179595738649368E-002,-9.686744213104248E-001,-1.917567402124405E-001,-5.334620177745819E-002,6.179595738649368E-002,-9.686744213104248E-001,-1.917567402124405E-001,
9.744666666666668E+008,-4.465918615460396E-002,6.274009495973587E-002,-9.750828742980957E-001,-1.674944758415222E-001,-4.465918615460396E-002,6.274009495973587E-002,-9.750828742980957E-001,-1.674944758415222E-001,
9.828333333333334E+008,-3.219161182641983E-002,6.073865666985512E-002,-9.781122207641602E-001,-1.470143646001816E-001,-3.219161182641983E-002,6.073865666985512E-002,-9.781122207641602E-001,-1.470143646001816E-001,
9.912000000000000E+008,-2.599872089922428E-002,5.514636635780335E-002,-9.781479239463806E-001,-1.192007362842560E-001,-2.599872089922428E-002,5.514636635780335E-002,-9.781479239463806E-001,-1.192007362842560E-001,
9.995666666666668E+008,-2.016643434762955E-002,4.803996533155441E-002,-9.943683147430420E-001,-8.155191689729691E-002,-2.016643434762955E-002,4.803996533155441E-002,-9.943683147430420E-001,-8.155191689729691E-002,
1.007933333333333E+009,-2.177979610860348E-002,4.038155823945999E-002,-9.912614226341248E-001,-6.645523756742477E-002,-2.177979610860348E-002,4.038155823945999E-002,-9.912614226341248E-001,-6.645523756742477E-002,
1.016300000000000E+009,-2.861485444009304E-002,3.667242452502251E-002,-9.923440217971802E-001,-3.864933177828789E-002,-2.861485444009304E-002,3.667242452502251E-002,-9.923440217971802E-001,-3.864933177828789E-002,
1.024666666666667E+009,-3.683726862072945E-002,3.257540240883827E-002,-9.931160807609558E-001,-5.574875045567751E-003,-3.683726862072945E-002,3.257540240883827E-002,-9.931160807609558E-001,-5.574875045567751E-003,
1.033033333333333E+009,-4.394996166229248E-002,3.763642907142639E-002,-9.915249943733215E-001,1.261318475008011E-002,-4.394996166229248E-002,3.763642907142639E-002,-9.915249943733215E-001,1.261318475008011E-002,
1.041400000000000E+009,-5.006925389170647E-002,4.536087065935135E-002,-9.766065478324890E-001,5.088388919830322E-002,-5.006925389170647E-002,4.536087065935135E-002,-9.766065478324890E-001,5.088388919830322E-002,
1.049766666666667E+009,-5.102934688329697E-002,5.551763623952866E-002,-9.878652095794678E-001,6.950379163026810E-002,-5.102934688329697E-002,5.551763623952866E-002,-9.878652095794678E-001,6.950379163026810E-002,
1.058133333333333E+009,-4.564186185598373E-002,6.344462186098099E-002,-9.831557273864746E-001,8.734377473592758E-002,-4.564186185598373E-002,6.344462186098099E-002,-9.831557273864746E-001,8.734377473592758E-002,
1.066500000000000E+009,-3.546153381466866E-002,6.972123682498932E-002,-9.902560710906982E-001,1.253097653388977E-001,-3.546153381466866E-002,6.972123682498932E-002,-9.902560710906982E-001,1.253097653388977E-001,
1.074866666666667E+009,-2.480147778987885E-002,6.771413981914520E-002,-9.727060198783875E-001,1.434956043958664E-001,-2.480147778987885E-002,6.771413981914520E-002,-9.727060198783875E-001,1.434956043958664E-001,
1.083233333333334E+009,-1.404290460050106E-002,5.834565684199333E-002,-9.714684486389160E-001,1.652366220951080E-001,-1.404290460050106E-002,5.834565684199333E-002,-9.714684486389160E-001,1.652366220951080E-001,
1.091600000000000E+009,-8.919951505959034E-003,4.917596280574799E-002,-9.633071422576904E-001,1.880843490362167E-001,-8.919951505959034E-003,4.917596280574799E-002,-9.633071422576904E-001,1.880843490362167E-001,
1.099966666666667E+009,-9.090828709304333E-003,3.822821378707886E-002,-9.661042094230652E-001,2.271431684494019E-001,-9.090828709304333E-003,3.822821378707886E-002,-9.661042094230652E-001,2.271431684494019E-001,
1.108333333333334E+009,-1.888260804116726E-002,2.965641953051090E-002,-9.437731504440308E-001,2.306020259857178E-001,-1.888260804116726E-002,2.965641953051090E-002,-9.437731504440308E-001,2.306020259857178E-001,
1.116700000000000E+009,-3.029969707131386E-002,3.159193322062492E-002,-9.426683783531189E-001,2.774159312248230E-001,-3.029969707131386E-002,3.159193322062492E-002,-9.426683783531189E-001,2.774159312248230E-001,
1.125066666666667E+009,-4.431311786174774E-002,3.491284698247910E-002,-9.461691379547119E-001,2.872642874717712E-001,-4.431311786174774E-002,3.491284698247910E-002,-9.461691379547119E-001,2.872642874717712E-001,
1.133433333333334E+009,-5.264092609286308E-002,4.946034401655197E-002,-9.451007843017578E-001,3.113114535808563E-001,-5.264092609286308E-002,4.946034401655197E-002,-9.451007843017578E-001,3.113114535808563E-001,
1.141800000000000E+009,-5.288206413388252E-002,6.301618367433548E-002,-9.165060520172119E-001,3.304193317890167E-001,-5.288206413388252E-002,6.301618367433548E-002,-9.165060520172119E-001,3.304193317890167E-001,
1.150166666666667E+009,-4.632218182086945E-002,7.985773682594299E-002,-9.009959101676941E-001,3.605826199054718E-001,-4.632218182086945E-002,7.985773682594299E-002,-9.009959101676941E-001,3.605826199054718E-001,
1.158533333333334E+009,-3.174948692321777E-002,8.777783811092377E-002,-9.020123481750488E-001,3.840102255344391E-001,-3.174948692321777E-002,8.777783811092377E-002,-9.020123481750488E-001,3.840102255344391E-001,
1.166900000000000E+009,-1.311532780528069E-002,8.790482580661774E-002,-8.939611911773682E-001,4.159930348396301E-001,-1.311532780528069E-002,8.790482580661774E-002,-8.939611911773682E-001,4.159930348396301E-001,
1.175266666666667E+009,2.800638554617763E-003,7.657954096794128E-002,-8.853928446769714E-001,4.228076040744782E-001,2.800638554617763E-003,7.657954096794128E-002,-8.853928446769714E-001,4.228076040744782E-001,
1.183633333333334E+009,1.339548081159592E-002,6.177979707717896E-002,-8.748024106025696E-001,4.618613123893738E-001,1.339548081159592E-002,6.177979707717896E-002,-8.748024106025696E-001,4.618613123893738E-001,
1.192000000000000E+009,1.367082539945841E-002,4.241308569908142E-002,-8.649603128433228E-001,4.710599482059479E-001,1.367082539945841E-002,4.241308569908142E-002,-8.649603128433228E-001,4.710599482059479E-001,
1.200366666666667E+009,2.561486093327403E-003,2.882254309952259E-002,-8.551437258720398E-001,4.998958408832550E-001,2.561486093327403E-003,2.882254309952259E-002,-8.551437258720398E-001,4.998958408832550E-001,
1.208733333333334E+009,-1.322855055332184E-002,2.141507156193256E-002,-8.475884199142456E-001,5.184845924377441E-001,-1.322855055332184E-002,2.141507156193256E-002,-8.475884199142456E-001,5.184845924377441E-001,
1.217100000000000E+009,-3.062327392399311E-002,2.858502231538296E-002,-8.308169841766357E-001,5.376504063606262E-001,-3.062327392399311E-002,2.858502231538296E-002,-8.308169841766357E-001,5.376504063606262E-001,
1.225466666666667E+009,-3.989398479461670E-002,4.074123501777649E-002,-8.042213320732117E-001,5.643876194953919E-001,-3.989398479461670E-002,4.074123501777649E-002,-8.042213320732117E-001,5.643876194953919E-001,
1.233833333333334E+009,-4.592669382691383E-002,5.824226513504982E-002,-7.869780063629150E-001,5.814327001571655E-001,-4.592669382691383E-002,5.824226513504982E-002,-7.869780063629150E-001,5.814327001571655E-001,
1.242200000000000E+009,-4.150056838989258E-002,7.662469148635864E-002,-7.725996971130371E-001,5.916813015937805E-001,-4.150056838989258E-002,7.662469148635864E-002,-7.725996971130371E-001,5.916813015937805E-001,
1.250566666666667E+009,-2.577153407037258E-002,8.740881085395813E-002,-7.463301420211792E-001,6.192501783370972E-001,-2.577153407037258E-002,8.740881085395813E-002,-7.463301420211792E-001,6.192501783370972E-001,
1.258933333333334E+009,-6.397649180144072E-003,8.865888416767120E-002,-7.566251754760742E-001,6.388019323348999E-001,-6.397649180144072E-003,8.865888416767120E-002,-7.566251754760742E-001,6.388019323348999E-001,
1.267300000000000E+009,1.162635535001755E-002,7.800195366144180E-002,-7.383514046669006E-001,6.517257094383240E-001,1.162635535001755E-002,7.800195366144180E-002,-7.383514046669006E-001,6.517257094383240E-001,
1.275666666666667E+009,2.061767131090164E-002,5.933855846524239E-002,-7.056840062141419E-001,6.758474707603455E-001,2.061767131090164E-002,5.933855846524239E-002,-7.056840062141419E-001,6.758474707603455E-001,
1.284033333333334E+009,1.978223584592342E-002,3.865440562367439E-002,-6.983054876327515E-001,6.979086399078369E-001,1.978223584592342E-002,3.865440562367439E-002,-6.983054876327515E-001,6.979086399078369E-001,
1.292400000000000E+009,8.460657671093941E-003,2.267455682158470E-002,-6.848428249359131E-001,7.148987650871277E-001,8.460657671093941E-003,2.267455682158470E-002,-6.848428249359131E-001,7.148987650871277E-001,
1.300766666666667E+009,-1.025691255927086E-002,1.541488151997328E-002,-6.595244407653809E-001,7.317079901695252E-001,-1.025691255927086E-002,1.541488151997328E-002,-6.595244407653809E-001,7.317079901695252E-001,
1.309133333333334E+009,-2.982056513428688E-002,2.046416327357292E-002,-6.447073817253113E-001,7.481913566589356E-001,-2.982056513428688E-002,2.046416327357292E-002,-6.447073817253113E-001,7.481913566589356E-001,
1.317500000000000E+009,-4.276175796985626E-002,3.624305501580238E-002,-6.192632913589478E-001,7.617356181144714E-001,-4.276175796985626E-002,3.624305501580238E-002,-6.192632913589478E-001,7.617356181144714E-001,
1.325866666666667E+009,-4.571459814906120E-002,5.708613619208336E-002,-6.030496358871460E-001,7.744977474212647E-001,-4.571459814906120E-002,5.708613619208336E-002,-6.030496358871460E-001,7.744977474212647E-001,
1.334233333333334E+009,-3.759229555726051E-002,7.575372606515884E-002,-5.750398635864258E-001,7.931172847747803E-001,-3.759229555726051E-002,7.575372606515884E-002,-5.750398635864258E-001,7.931172847747803E-001,
1.342600000000000E+009,-2.225077897310257E-002,8.551011234521866E-002,-5.571875572204590E-001,8.096033930778503E-001,-2.225077897310257E-002,8.551011234521866E-002,-5.571875572204590E-001,8.096033930778503E-001,
1.350966666666667E+009,-3.157346509397030E-003,8.502279967069626E-002,-5.285118222236633E-001,8.346863985061646E-001,-3.157346509397030E-003,8.502279967069626E-002,-5.285118222236633E-001,8.346863985061646E-001,
1.359333333333334E+009,1.150901056826115E-002,7.422538101673126E-002,-5.176002383232117E-001,8.365418314933777E-001,1.150901056826115E-002,7.422538101673126E-002,-5.176002383232117E-001,8.365418314933777E-001,
1.367700000000000E+009,1.520484033972025E-002,5.285884067416191E-002,-5.009245872497559E-001,8.461152315139771E-001,1.520484033972025E-002,5.285884067416191E-002,-5.009245872497559E-001,8.461152315139771E-001,
1.376066666666667E+009,1.046012341976166E-002,3.508943691849709E-002,-4.837535917758942E-001,8.650977611541748E-001,1.046012341976166E-002,3.508943691849709E-002,-4.837535917758942E-001,8.650977611541748E-001,
1.384433333333334E+009,-6.405097432434559E-003,1.975862681865692E-002,-4.576065540313721E-001,8.884179592132568E-001,-6.405097432434559E-003,1.975862681865692E-002,-4.576065540313721E-001,8.884179592132568E-001,
1.392800000000000E+009,-2.733974158763886E-002,1.898087002336979E-002,-4.410195350646973E-001,8.836222290992737E-001,-2.733974158763886E-002,1.898087002336979E-002,-4.410195350646973E-001,8.836222290992737E-001,
1.401166666666667E+009,-4.660381749272347E-002,3.100305050611496E-002,-4.146693348884583E-001,9.017367362976074E-001,-4.660381749272347E-002,3.100305050611496E-002,-4.146693348884583E-001,9.017367362976074E-001,
1.409533333333334E+009,-5.728155747056007E-002,4.853202402591705E-002,-3.811440467834473E-001,9.092403650283814E-001,-5.728155747056007E-002,4.853202402591705E-002,-3.811440467834473E-001,9.092403650283814E-001,
1.417900000000000E+009,-5.646455660462380E-002,7.487294077873230E-002,-3.682824075222015E-001,9.016527533531189E-001,-5.646455660462380E-002,7.487294077873230E-002,-3.682824075222015E-001,9.016527533531189E-001,
1.426266666666667E+009,-4.179043322801590E-002,9.360808134078980E-002,-3.357195258140564E-001,9.246648550033569E-001,-4.179043322801590E-002,9.360808134078980E-002,-3.357195258140564E-001,9.246648550033569E-001,
1.434633333333334E+009,-2.206685394048691E-002,1.048863604664803E-001,-3.053536117076874E-001,9.315363168716431E-001,-2.206685394048691E-002,1.048863604664803E-001,-3.053536117076874E-001,9.315363168716431E-001,
1.443000000000000E+009,9.195945312967524E-005,1.040226668119431E-001,-2.913638949394226E-001,9.364660382270813E-001,9.195945312967524E-005,1.040226668119431E-001,-2.913638949394226E-001,9.364660382270813E-001,
1.451366666666667E+009,1.606673933565617E-002,9.162106364965439E-002,-2.631053626537323E-001,9.399574995040894E-001,1.606673933565617E-002,9.162106364965439E-002,-2.631053626537323E-001,9.399574995040894E-001,
1.459733333333334E+009,2.426753379404545E-002,7.070151716470718E-002,-2.447024732828140E-001,9.475269913673401E-001,2.426753379404545E-002,7.070151716470718E-002,-2.447024732828140E-001,9.475269913673401E-001,
