% Version 1.00
%
%freq[Hz],re:Trc1_S11,im:Trc1_S11,re:Trc2_S21,im:Trc2_S21,re:Trc3_S11,im:Trc3_S11,re:Trc4_S21,im:Trc4_S21,
6.900000000000000E+008,-2.370392344892025E-002,6.024876609444618E-002,-4.972947835922241E-001,-8.481816649436951E-001,-2.370392344892025E-002,6.024876609444618E-002,-4.972947835922241E-001,-8.481816649436951E-001,
6.983666666666666E+008,-1.298170164227486E-002,6.096974760293961E-002,-5.228653550148010E-001,-8.396447896957398E-001,-1.298170164227486E-002,6.096974760293961E-002,-5.228653550148010E-001,-8.396447896957398E-001,
7.067333333333334E+008,-5.571019370108843E-003,5.604386702179909E-002,-5.695338845252991E-001,-7.780787348747253E-001,-5.571019370108843E-003,5.604386702179909E-002,-5.695338845252991E-001,-7.780787348747253E-001,
7.151000000000000E+008,-4.103706683963537E-003,4.870958998799324E-002,-5.883016586303711E-001,-7.889918088912964E-001,-4.103706683963537E-003,4.870958998799324E-002,-5.883016586303711E-001,-7.889918088912964E-001,
7.234666666666666E+008,-6.255744025111198E-003,4.305116087198257E-002,-6.005436182022095E-001,-7.755495309829712E-001,-6.255744025111198E-003,4.305116087198257E-002,-6.005436182022095E-001,-7.755495309829712E-001,
7.318333333333334E+008,-1.243296824395657E-002,4.082017764449120E-002,-6.158259510993958E-001,-7.781386971473694E-001,-1.243296824395657E-002,4.082017764449120E-002,-6.158259510993958E-001,-7.781386971473694E-001,
7.402000000000000E+008,-1.766104996204376E-002,4.109938442707062E-002,-6.594353318214417E-001,-7.599655985832214E-001,-1.766104996204376E-002,4.109938442707062E-002,-6.594353318214417E-001,-7.599655985832214E-001,
7.485666666666666E+008,-2.334461919963360E-002,4.731366410851479E-002,-6.572775244712830E-001,-7.559977173805237E-001,-2.334461919963360E-002,4.731366410851479E-002,-6.572775244712830E-001,-7.559977173805237E-001,
7.569333333333334E+008,-2.345686219632626E-002,5.514701083302498E-002,-6.660524010658264E-001,-7.340214848518372E-001,-2.345686219632626E-002,5.514701083302498E-002,-6.660524010658264E-001,-7.340214848518372E-001,
7.653000000000000E+008,-1.709787361323834E-002,6.276819109916687E-002,-6.868776679039002E-001,-7.159758806228638E-001,-1.709787361323834E-002,6.276819109916687E-002,-6.868776679039002E-001,-7.159758806228638E-001,
7.736666666666666E+008,-9.078855626285076E-003,6.878338009119034E-002,-7.169095277786255E-001,-6.900334954261780E-001,-9.078855626285076E-003,6.878338009119034E-002,-7.169095277786255E-001,-6.900334954261780E-001,
7.820333333333334E+008,1.222293241880834E-003,7.106233388185501E-002,-7.275212407112122E-001,-6.762702465057373E-001,1.222293241880834E-003,7.106233388185501E-002,-7.275212407112122E-001,-6.762702465057373E-001,
7.904000000000000E+008,1.272687688469887E-002,6.988581269979477E-002,-7.329109907150269E-001,-6.556828022003174E-001,1.272687688469887E-002,6.988581269979477E-002,-7.329109907150269E-001,-6.556828022003174E-001,
7.987666666666666E+008,1.824272051453590E-002,6.415215879678726E-002,-7.679890394210815E-001,-6.327387094497681E-001,1.824272051453590E-002,6.415215879678726E-002,-7.679890394210815E-001,-6.327387094497681E-001,
8.071333333333334E+008,2.242569066584110E-002,5.819992721080780E-002,-7.721189260482788E-001,-6.225358843803406E-001,2.242569066584110E-002,5.819992721080780E-002,-7.721189260482788E-001,-6.225358843803406E-001,
8.155000000000000E+008,1.777398586273193E-002,5.200657248497009E-002,-7.967450618743897E-001,-6.017771363258362E-001,1.777398586273193E-002,5.200657248497009E-002,-7.967450618743897E-001,-6.017771363258362E-001,
8.238666666666666E+008,1.473534945398569E-002,4.756224900484085E-002,-7.957543134689331E-001,-5.698217749595642E-001,1.473534945398569E-002,4.756224900484085E-002,-7.957543134689331E-001,-5.698217749595642E-001,
8.322333333333334E+008,8.389494381844997E-003,4.754186794161797E-002,-8.216655850410461E-001,-5.509028434753418E-001,8.389494381844997E-003,4.754186794161797E-002,-8.216655850410461E-001,-5.509028434753418E-001,
8.406000000000000E+008,3.831351641565561E-003,5.083657056093216E-002,-8.277036547660828E-001,-5.383499860763550E-001,3.831351641565561E-003,5.083657056093216E-002,-8.277036547660828E-001,-5.383499860763550E-001,
8.489666666666668E+008,1.444039633497596E-003,5.772467702627182E-002,-8.409757018089294E-001,-5.228589177131653E-001,1.444039633497596E-003,5.772467702627182E-002,-8.409757018089294E-001,-5.228589177131653E-001,
8.573333333333334E+008,4.624379798769951E-003,6.486614793539047E-002,-8.581216931343079E-001,-4.809575974941254E-001,4.624379798769951E-003,6.486614793539047E-002,-8.581216931343079E-001,-4.809575974941254E-001,
8.657000000000000E+008,1.472634356468916E-002,7.097318023443222E-002,-8.755557537078857E-001,-4.616851806640625E-001,1.472634356468916E-002,7.097318023443222E-002,-8.755557537078857E-001,-4.616851806640625E-001,
8.740666666666668E+008,2.330286242067814E-002,7.291726022958756E-002,-8.708227276802063E-001,-4.500933587551117E-001,2.330286242067814E-002,7.291726022958756E-002,-8.708227276802063E-001,-4.500933587551117E-001,
8.824333333333334E+008,3.479231521487236E-002,7.152795046567917E-002,-8.896002769470215E-001,-4.353266060352325E-001,3.479231521487236E-002,7.152795046567917E-002,-8.896002769470215E-001,-4.353266060352325E-001,
8.908000000000000E+008,4.423903301358223E-002,6.587342172861099E-002,-8.899986147880554E-001,-4.037868082523346E-001,4.423903301358223E-002,6.587342172861099E-002,-8.899986147880554E-001,-4.037868082523346E-001,
8.991666666666668E+008,4.848292097449303E-002,5.816444382071495E-002,-8.995971679687500E-001,-3.750568628311157E-001,4.848292097449303E-002,5.816444382071495E-002,-8.995971679687500E-001,-3.750568628311157E-001,
9.075333333333334E+008,4.993434995412827E-002,5.072230473160744E-002,-9.340432286262512E-001,-3.539364039897919E-001,4.993434995412827E-002,5.072230473160744E-002,-9.340432286262512E-001,-3.539364039897919E-001,
9.159000000000000E+008,4.753057658672333E-002,4.732639715075493E-002,-9.384866952896118E-001,-3.264782130718231E-001,4.753057658672333E-002,4.732639715075493E-002,-9.384866952896118E-001,-3.264782130718231E-001,
9.242666666666668E+008,4.286444187164307E-002,4.313280060887337E-002,-9.457231163978577E-001,-3.127535283565521E-001,4.286444187164307E-002,4.313280060887337E-002,-9.457231163978577E-001,-3.127535283565521E-001,
9.326333333333334E+008,3.588594868779182E-002,4.305580258369446E-002,-9.641389250755310E-001,-2.905212640762329E-001,3.588594868779182E-002,4.305580258369446E-002,-9.641389250755310E-001,-2.905212640762329E-001,
9.410000000000000E+008,3.317933529615402E-002,4.705518111586571E-002,-9.592298269271851E-001,-2.550696432590485E-001,3.317933529615402E-002,4.705518111586571E-002,-9.592298269271851E-001,-2.550696432590485E-001,
9.493666666666668E+008,3.319564834237099E-002,5.213202536106110E-002,-9.566829204559326E-001,-2.375417351722717E-001,3.319564834237099E-002,5.213202536106110E-002,-9.566829204559326E-001,-2.375417351722717E-001,
9.577333333333334E+008,3.667751699686050E-002,5.956526845693588E-002,-9.741250872612000E-001,-2.133126109838486E-001,3.667751699686050E-002,5.956526845693588E-002,-9.741250872612000E-001,-2.133126109838486E-001,
9.661000000000000E+008,4.700545594096184E-002,6.507582962512970E-002,-9.744107723236084E-001,-1.904056817293167E-001,4.700545594096184E-002,6.507582962512970E-002,-9.744107723236084E-001,-1.904056817293167E-001,
9.744666666666668E+008,5.562005192041397E-002,6.392010301351547E-002,-9.775088429450989E-001,-1.649402379989624E-001,5.562005192041397E-002,6.392010301351547E-002,-9.775088429450989E-001,-1.649402379989624E-001,
9.828333333333334E+008,6.962955743074417E-002,5.947427079081535E-002,-9.777080416679382E-001,-1.453332006931305E-001,6.962955743074417E-002,5.947427079081535E-002,-9.777080416679382E-001,-1.453332006931305E-001,
9.912000000000000E+008,7.749301195144653E-002,5.161733925342560E-002,-9.759982824325562E-001,-1.175131723284721E-001,7.749301195144653E-002,5.161733925342560E-002,-9.759982824325562E-001,-1.175131723284721E-001,
9.995666666666668E+008,8.364968001842499E-002,4.109487682580948E-002,-9.893507957458496E-001,-7.862683385610580E-002,8.364968001842499E-002,4.109487682580948E-002,-9.893507957458496E-001,-7.862683385610580E-002,
1.007933333333333E+009,8.401691913604736E-002,3.100387193262577E-002,-9.918580651283264E-001,-6.637148559093475E-002,8.401691913604736E-002,3.100387193262577E-002,-9.918580651283264E-001,-6.637148559093475E-002,
1.016300000000000E+009,7.804183661937714E-002,2.381691336631775E-002,-9.932273030281067E-001,-4.142452403903008E-002,7.804183661937714E-002,2.381691336631775E-002,-9.932273030281067E-001,-4.142452403903008E-002,
1.024666666666667E+009,7.115130871534348E-002,1.662066020071507E-002,-9.938368797302246E-001,-6.597141269594431E-003,7.115130871534348E-002,1.662066020071507E-002,-9.938368797302246E-001,-6.597141269594431E-003,
1.033033333333333E+009,6.394556909799576E-002,1.844698004424572E-002,-9.941521883010864E-001,1.173000596463680E-002,6.394556909799576E-002,1.844698004424572E-002,-9.941521883010864E-001,1.173000596463680E-002,
1.041400000000000E+009,5.849504843354225E-002,2.305139973759651E-002,-9.790323376655579E-001,4.879262298345566E-002,5.849504843354225E-002,2.305139973759651E-002,-9.790323376655579E-001,4.879262298345566E-002,
1.049766666666667E+009,5.848459899425507E-002,2.928190678358078E-002,-9.925419092178345E-001,6.916015595197678E-002,5.848459899425507E-002,2.928190678358078E-002,-9.925419092178345E-001,6.916015595197678E-002,
1.058133333333333E+009,6.424919515848160E-002,3.463849425315857E-002,-9.863911867141724E-001,8.907164633274078E-002,6.424919515848160E-002,3.463849425315857E-002,-9.863911867141724E-001,8.907164633274078E-002,
1.066500000000000E+009,7.583022117614746E-002,3.629102930426598E-002,-9.914139509201050E-001,1.281685531139374E-001,7.583022117614746E-002,3.629102930426598E-002,-9.914139509201050E-001,1.281685531139374E-001,
1.074866666666667E+009,8.617857843637466E-002,3.309037536382675E-002,-9.739846587181091E-001,1.441114544868469E-001,8.617857843637466E-002,3.309037536382675E-002,-9.739846587181091E-001,1.441114544868469E-001,
1.083233333333334E+009,9.720588475465775E-002,1.995123550295830E-002,-9.723393917083740E-001,1.674192547798157E-001,9.720588475465775E-002,1.995123550295830E-002,-9.723393917083740E-001,1.674192547798157E-001,
1.091600000000000E+009,1.036760285496712E-001,8.284107781946659E-003,-9.623683094978333E-001,1.894614696502686E-001,1.036760285496712E-001,8.284107781946659E-003,-9.623683094978333E-001,1.894614696502686E-001,
1.099966666666667E+009,1.044962778687477E-001,-7.706762757152319E-003,-9.653532505035400E-001,2.291195243597031E-001,1.044962778687477E-001,-7.706762757152319E-003,-9.653532505035400E-001,2.291195243597031E-001,
1.108333333333334E+009,9.451926499605179E-002,-1.943696849048138E-002,-9.433956146240234E-001,2.298346310853958E-001,9.451926499605179E-002,-1.943696849048138E-002,-9.433956146240234E-001,2.298346310853958E-001,
1.116700000000000E+009,7.989066839218140E-002,-2.094935066998005E-002,-9.430284500122070E-001,2.756608128547669E-001,7.989066839218140E-002,-2.094935066998005E-002,-9.430284500122070E-001,2.756608128547669E-001,
1.125066666666667E+009,6.757647544145584E-002,-2.130107954144478E-002,-9.491147994995117E-001,2.844266891479492E-001,6.757647544145584E-002,-2.130107954144478E-002,-9.491147994995117E-001,2.844266891479492E-001,
1.133433333333334E+009,5.820863693952560E-002,-1.033093221485615E-002,-9.477595090866089E-001,3.118326067924500E-001,5.820863693952560E-002,-1.033093221485615E-002,-9.477595090866089E-001,3.118326067924500E-001,
1.141800000000000E+009,5.675647035241127E-002,-3.674403124023229E-004,-9.232051372528076E-001,3.302368223667145E-001,5.675647035241127E-002,-3.674403124023229E-004,-9.232051372528076E-001,3.302368223667145E-001,
1.150166666666667E+009,6.338126212358475E-002,1.211528852581978E-002,-9.046772122383118E-001,3.618948757648468E-001,6.338126212358475E-002,1.211528852581978E-002,-9.046772122383118E-001,3.618948757648468E-001,
1.158533333333334E+009,7.702824473381043E-002,1.743354462087154E-002,-9.055848121643066E-001,3.893736004829407E-001,7.702824473381043E-002,1.743354462087154E-002,-9.055848121643066E-001,3.893736004829407E-001,
1.166900000000000E+009,9.657534211874008E-002,1.374755613505840E-002,-8.958431482315064E-001,4.225154519081116E-001,9.657534211874008E-002,1.374755613505840E-002,-8.958431482315064E-001,4.225154519081116E-001,
1.175266666666667E+009,1.102375760674477E-001,-7.243537111207843E-004,-8.830643892288208E-001,4.270336031913757E-001,1.102375760674477E-001,-7.243537111207843E-004,-8.830643892288208E-001,4.270336031913757E-001,
1.183633333333334E+009,1.204694285988808E-001,-1.948875002563000E-002,-8.735539317131043E-001,4.648913741111755E-001,1.204694285988808E-001,-1.948875002563000E-002,-8.735539317131043E-001,4.648913741111755E-001,
1.192000000000000E+009,1.202040761709213E-001,-4.228577017784119E-002,-8.611887097358704E-001,4.692938625812531E-001,1.202040761709213E-001,-4.228577017784119E-002,-8.611887097358704E-001,4.692938625812531E-001,
1.200366666666667E+009,1.074737086892128E-001,-5.876526981592178E-002,-8.517094850540161E-001,4.979785382747650E-001,1.074737086892128E-001,-5.876526981592178E-002,-8.517094850540161E-001,4.979785382747650E-001,
1.208733333333334E+009,9.080251306295395E-002,-6.973405927419663E-002,-8.455065488815308E-001,5.136749744415283E-001,9.080251306295395E-002,-6.973405927419663E-002,-8.455065488815308E-001,5.136749744415283E-001,
1.217100000000000E+009,7.131335139274597E-002,-6.756378710269928E-002,-8.298524022102356E-001,5.352991223335266E-001,7.131335139274597E-002,-6.756378710269928E-002,-8.298524022102356E-001,5.352991223335266E-001,
1.225466666666667E+009,5.879305303096771E-002,-6.030698120594025E-002,-8.070299625396729E-001,5.618098378181458E-001,5.879305303096771E-002,-6.030698120594025E-002,-8.070299625396729E-001,5.618098378181458E-001,
1.233833333333334E+009,5.144798755645752E-002,-4.471280798316002E-002,-7.907067537307739E-001,5.810030102729797E-001,5.144798755645752E-002,-4.471280798316002E-002,-7.907067537307739E-001,5.810030102729797E-001,
1.242200000000000E+009,5.404800176620483E-002,-2.998782135546207E-002,-7.756429314613342E-001,5.972823500633240E-001,5.404800176620483E-002,-2.998782135546207E-002,-7.756429314613342E-001,5.972823500633240E-001,
1.250566666666667E+009,6.798526644706726E-002,-2.274634130299091E-002,-7.480580210685730E-001,6.239480972290039E-001,6.798526644706726E-002,-2.274634130299091E-002,-7.480580210685730E-001,6.239480972290039E-001,
1.258933333333334E+009,8.428896218538284E-002,-2.492962591350079E-002,-7.581252455711365E-001,6.429764032363892E-001,8.428896218538284E-002,-2.492962591350079E-002,-7.581252455711365E-001,6.429764032363892E-001,
1.267300000000000E+009,9.997615963220596E-002,-3.967693448066711E-002,-7.344920635223389E-001,6.559996008872986E-001,9.997615963220596E-002,-3.967693448066711E-002,-7.344920635223389E-001,6.559996008872986E-001,
1.275666666666667E+009,1.081137880682945E-001,-6.031120941042900E-002,-7.011459469795227E-001,6.790421605110169E-001,1.081137880682945E-001,-6.031120941042900E-002,-7.011459469795227E-001,6.790421605110169E-001,
1.284033333333334E+009,1.047188565135002E-001,-8.431006968021393E-002,-6.940649747848511E-001,6.954604983329773E-001,1.047188565135002E-001,-8.431006968021393E-002,-6.940649747848511E-001,6.954604983329773E-001,
1.292400000000000E+009,9.098363667726517E-002,-1.041481569409370E-001,-6.816720962524414E-001,7.100161314010620E-001,9.098363667726517E-002,-1.041481569409370E-001,-6.816720962524414E-001,7.100161314010620E-001,
1.300766666666667E+009,7.066112011671066E-002,-1.127026751637459E-001,-6.583680510520935E-001,7.254893183708191E-001,7.066112011671066E-002,-1.127026751637459E-001,-6.583680510520935E-001,7.254893183708191E-001,
1.309133333333334E+009,4.680275917053223E-002,-1.118269562721252E-001,-6.478250622749329E-001,7.439030408859253E-001,4.680275917053223E-002,-1.118269562721252E-001,-6.478250622749329E-001,7.439030408859253E-001,
1.317500000000000E+009,3.189186751842499E-002,-1.011205688118935E-001,-6.256663799285889E-001,7.562186717987061E-001,3.189186751842499E-002,-1.011205688118935E-001,-6.256663799285889E-001,7.562186717987061E-001,
1.325866666666667E+009,2.423344738781452E-002,-8.230978995561600E-002,-6.089485883712769E-001,7.716543078422546E-001,2.423344738781452E-002,-8.230978995561600E-002,-6.089485883712769E-001,7.716543078422546E-001,
1.334233333333334E+009,2.897029928863049E-002,-6.648768484592438E-002,-5.805893540382385E-001,7.946547269821167E-001,2.897029928863049E-002,-6.648768484592438E-002,-5.805893540382385E-001,7.946547269821167E-001,
1.342600000000000E+009,4.016305878758431E-002,-5.944014340639114E-002,-5.590293407440186E-001,8.135192990303040E-001,4.016305878758431E-002,-5.944014340639114E-002,-5.590293407440186E-001,8.135192990303040E-001,
1.350966666666667E+009,5.613111332058907E-002,-6.293098628520966E-002,-5.267343521118164E-001,8.360993862152100E-001,5.613111332058907E-002,-6.293098628520966E-002,-5.267343521118164E-001,8.360993862152100E-001,
1.359333333333334E+009,6.950311362743378E-002,-7.713746279478073E-002,-5.164250731468201E-001,8.391768932342529E-001,6.950311362743378E-002,-7.713746279478073E-002,-5.164250731468201E-001,8.391768932342529E-001,
1.367700000000000E+009,6.854080408811569E-002,-9.943673759698868E-002,-4.973461627960205E-001,8.464421033859253E-001,6.854080408811569E-002,-9.943673759698868E-002,-4.973461627960205E-001,8.464421033859253E-001,
1.376066666666667E+009,6.067320704460144E-002,-1.193433031439781E-001,-4.825210273265839E-001,8.614501357078552E-001,6.067320704460144E-002,-1.193433031439781E-001,-4.825210273265839E-001,8.614501357078552E-001,
1.384433333333334E+009,4.059392958879471E-002,-1.371415555477142E-001,-4.575084149837494E-001,8.822586536407471E-001,4.059392958879471E-002,-1.371415555477142E-001,-4.575084149837494E-001,8.822586536407471E-001,
1.392800000000000E+009,1.631371304392815E-002,-1.406981796026230E-001,-4.416752159595490E-001,8.753027319908142E-001,1.631371304392815E-002,-1.406981796026230E-001,-4.416752159595490E-001,8.753027319908142E-001,
1.401166666666667E+009,-6.508995313197374E-003,-1.324725896120071E-001,-4.215765297412872E-001,8.947781324386597E-001,-6.508995313197374E-003,-1.324725896120071E-001,-4.215765297412872E-001,8.947781324386597E-001,
1.409533333333334E+009,-2.192964404821396E-002,-1.156069636344910E-001,-3.919684588909149E-001,9.067091941833496E-001,-2.192964404821396E-002,-1.156069636344910E-001,-3.919684588909149E-001,9.067091941833496E-001,
1.417900000000000E+009,-2.623583748936653E-002,-9.145493805408478E-002,-3.809784352779388E-001,9.009469151496887E-001,-2.623583748936653E-002,-9.145493805408478E-002,-3.809784352779388E-001,9.009469151496887E-001,
1.426266666666667E+009,-1.756943017244339E-002,-7.501862943172455E-002,-3.457506895065308E-001,9.264263510704041E-001,-1.756943017244339E-002,-7.501862943172455E-002,-3.457506895065308E-001,9.264263510704041E-001,
1.434633333333334E+009,-1.290718442760408E-003,-6.505134701728821E-002,-3.114638626575470E-001,9.366613030433655E-001,-1.290718442760408E-003,-6.505134701728821E-002,-3.114638626575470E-001,9.366613030433655E-001,
1.443000000000000E+009,1.517930906265974E-002,-6.711559742689133E-002,-2.929579317569733E-001,9.402634501457214E-001,1.517930906265974E-002,-6.711559742689133E-002,-2.929579317569733E-001,9.402634501457214E-001,
1.451366666666667E+009,2.821950428187847E-002,-8.058308064937592E-002,-2.609207034111023E-001,9.449059963226318E-001,2.821950428187847E-002,-8.058308064937592E-002,-2.609207034111023E-001,9.449059963226318E-001,
1.459733333333334E+009,3.166773915290833E-002,-1.031368970870972E-001,-2.448151856660843E-001,9.461822509765625E-001,3.166773915290833E-002,-1.031368970870972E-001,-2.448151856660843E-001,9.461822509765625E-001,
