% Version 1.00
%
%freq[Hz],re:Trc1_S11,im:Trc1_S11,re:Trc2_S21,im:Trc2_S21,re:Trc3_S11,im:Trc3_S11,re:Trc4_S21,im:Trc4_S21,
6.900000000000000E+008,-2.551289089024067E-002,5.068231746554375E-002,-4.943706393241882E-001,-8.526987433433533E-001,-2.551289089024067E-002,5.068231746554375E-002,-4.943706393241882E-001,-8.526987433433533E-001,
6.983666666666666E+008,-1.540041249245405E-002,5.148378387093544E-002,-5.170134305953980E-001,-8.445840477943420E-001,-1.540041249245405E-002,5.148378387093544E-002,-5.170134305953980E-001,-8.445840477943420E-001,
7.067333333333334E+008,-8.417053148150444E-003,4.648022353649139E-002,-5.625433921813965E-001,-7.827358841896057E-001,-8.417053148150444E-003,4.648022353649139E-002,-5.625433921813965E-001,-7.827358841896057E-001,
7.151000000000000E+008,-7.090463303029537E-003,3.890995681285858E-002,-5.817844271659851E-001,-7.966812849044800E-001,-7.090463303029537E-003,3.890995681285858E-002,-5.817844271659851E-001,-7.966812849044800E-001,
7.234666666666666E+008,-9.694978594779968E-003,3.371196985244751E-002,-5.937016010284424E-001,-7.847616076469421E-001,-9.694978594779968E-003,3.371196985244751E-002,-5.937016010284424E-001,-7.847616076469421E-001,
7.318333333333334E+008,-1.590221561491489E-002,3.149584308266640E-002,-6.084993481636047E-001,-7.831165194511414E-001,-1.590221561491489E-002,3.149584308266640E-002,-6.084993481636047E-001,-7.831165194511414E-001,
7.402000000000000E+008,-2.177009731531143E-002,3.194943815469742E-002,-6.534175872802734E-001,-7.658837437629700E-001,-2.177009731531143E-002,3.194943815469742E-002,-6.534175872802734E-001,-7.658837437629700E-001,
7.485666666666666E+008,-2.793588675558567E-002,3.813296183943749E-002,-6.518661975860596E-001,-7.622740864753723E-001,-2.793588675558567E-002,3.813296183943749E-002,-6.518661975860596E-001,-7.622740864753723E-001,
7.569333333333334E+008,-2.835459075868130E-002,4.594579711556435E-002,-6.605064868927002E-001,-7.420853972434998E-001,-2.835459075868130E-002,4.594579711556435E-002,-6.605064868927002E-001,-7.420853972434998E-001,
7.653000000000000E+008,-2.263687551021576E-002,5.352723225951195E-002,-6.784852147102356E-001,-7.216454148292542E-001,-2.263687551021576E-002,5.352723225951195E-002,-6.784852147102356E-001,-7.216454148292542E-001,
7.736666666666666E+008,-1.511097606271505E-002,5.966151133179665E-002,-7.109966874122620E-001,-6.955904364585877E-001,-1.511097606271505E-002,5.966151133179665E-002,-7.109966874122620E-001,-6.955904364585877E-001,
7.820333333333334E+008,-5.122818984091282E-003,6.220316514372826E-002,-7.225330471992493E-001,-6.834145188331604E-001,-5.122818984091282E-003,6.220316514372826E-002,-7.225330471992493E-001,-6.834145188331604E-001,
7.904000000000000E+008,6.007393356412649E-003,6.089739128947258E-002,-7.273819446563721E-001,-6.617141366004944E-001,6.007393356412649E-003,6.089739128947258E-002,-7.273819446563721E-001,-6.617141366004944E-001,
7.987666666666666E+008,1.130771823227406E-002,5.524408444762230E-002,-7.618313431739807E-001,-6.413603425025940E-001,1.130771823227406E-002,5.524408444762230E-002,-7.618313431739807E-001,-6.413603425025940E-001,
8.071333333333334E+008,1.494793500751257E-002,4.990219324827194E-002,-7.668637037277222E-001,-6.304947733879089E-001,1.494793500751257E-002,4.990219324827194E-002,-7.668637037277222E-001,-6.304947733879089E-001,
8.155000000000000E+008,9.902562014758587E-003,4.356864839792252E-002,-7.899652719497681E-001,-6.086274385452271E-001,9.902562014758587E-003,4.356864839792252E-002,-7.899652719497681E-001,-6.086274385452271E-001,
8.238666666666666E+008,6.791135296225548E-003,3.930614516139031E-002,-7.917837500572205E-001,-5.795027613639832E-001,6.791135296225548E-003,3.930614516139031E-002,-7.917837500572205E-001,-5.795027613639832E-001,
8.322333333333334E+008,8.125735621433705E-005,3.965811803936958E-002,-8.133493661880493E-001,-5.597813129425049E-001,8.125735621433705E-005,3.965811803936958E-002,-8.133493661880493E-001,-5.597813129425049E-001,
8.406000000000000E+008,-4.875989165157080E-003,4.343981668353081E-002,-8.244374394416809E-001,-5.476436018943787E-001,-4.875989165157080E-003,4.343981668353081E-002,-8.244374394416809E-001,-5.476436018943787E-001,
8.489666666666668E+008,-7.682576309889555E-003,5.049899965524674E-002,-8.354560136795044E-001,-5.318225622177124E-001,-7.682576309889555E-003,5.049899965524674E-002,-8.354560136795044E-001,-5.318225622177124E-001,
8.573333333333334E+008,-5.123878363519907E-003,5.805657431483269E-002,-8.530671000480652E-001,-4.914581477642059E-001,-5.123878363519907E-003,5.805657431483269E-002,-8.530671000480652E-001,-4.914581477642059E-001,
8.657000000000000E+008,4.423949401825666E-003,6.448572129011154E-002,-8.702974319458008E-001,-4.715113937854767E-001,4.423949401825666E-003,6.448572129011154E-002,-8.702974319458008E-001,-4.715113937854767E-001,
8.740666666666668E+008,1.294889021664858E-002,6.676756590604782E-002,-8.677902221679688E-001,-4.587793350219727E-001,1.294889021664858E-002,6.676756590604782E-002,-8.677902221679688E-001,-4.587793350219727E-001,
8.824333333333334E+008,2.362440899014473E-002,6.579330563545227E-002,-8.850862979888916E-001,-4.443683624267578E-001,2.362440899014473E-002,6.579330563545227E-002,-8.850862979888916E-001,-4.443683624267578E-001,
8.908000000000000E+008,3.327138349413872E-002,6.058274954557419E-002,-8.857921957969666E-001,-4.123114347457886E-001,3.327138349413872E-002,6.058274954557419E-002,-8.857921957969666E-001,-4.123114347457886E-001,
8.991666666666668E+008,3.745443746447563E-002,5.331714823842049E-002,-9.005410671234131E-001,-3.851511776447296E-001,3.745443746447563E-002,5.331714823842049E-002,-9.005410671234131E-001,-3.851511776447296E-001,
9.075333333333334E+008,3.844537213444710E-002,4.622011631727219E-002,-9.311549663543701E-001,-3.658376336097717E-001,3.844537213444710E-002,4.622011631727219E-002,-9.311549663543701E-001,-3.658376336097717E-001,
9.159000000000000E+008,3.601817041635513E-002,4.305084422230721E-002,-9.368411302566528E-001,-3.379429578781128E-001,3.601817041635513E-002,4.305084422230721E-002,-9.368411302566528E-001,-3.379429578781128E-001,
9.242666666666668E+008,3.119773603975773E-002,3.938250243663788E-002,-9.424278736114502E-001,-3.236134648323059E-001,3.119773603975773E-002,3.938250243663788E-002,-9.424278736114502E-001,-3.236134648323059E-001,
9.326333333333334E+008,2.402334474027157E-002,3.993012383580208E-002,-9.632257819175720E-001,-2.999583780765533E-001,2.402334474027157E-002,3.993012383580208E-002,-9.632257819175720E-001,-2.999583780765533E-001,
9.410000000000000E+008,2.077209949493408E-002,4.400196671485901E-002,-9.565669894218445E-001,-2.667205929756165E-001,2.077209949493408E-002,4.400196671485901E-002,-9.565669894218445E-001,-2.667205929756165E-001,
9.493666666666668E+008,2.037565037608147E-002,4.987632855772972E-002,-9.551495909690857E-001,-2.484945356845856E-001,2.037565037608147E-002,4.987632855772972E-002,-9.551495909690857E-001,-2.484945356845856E-001,
9.577333333333334E+008,2.363807521760464E-002,5.768014863133431E-002,-9.713065624237061E-001,-2.246797680854797E-001,2.363807521760464E-002,5.768014863133431E-002,-9.713065624237061E-001,-2.246797680854797E-001,
9.661000000000000E+008,3.311573341488838E-002,6.351675838232040E-002,-9.684863090515137E-001,-2.003145962953568E-001,3.311573341488838E-002,6.351675838232040E-002,-9.684863090515137E-001,-2.003145962953568E-001,
9.744666666666668E+008,4.181111603975296E-002,6.294318288564682E-002,-9.741626381874085E-001,-1.768615692853928E-001,4.181111603975296E-002,6.294318288564682E-002,-9.741626381874085E-001,-1.768615692853928E-001,
9.828333333333334E+008,5.579506233334541E-002,5.909638106822968E-002,-9.771160483360291E-001,-1.557005345821381E-001,5.579506233334541E-002,5.909638106822968E-002,-9.771160483360291E-001,-1.557005345821381E-001,
9.912000000000000E+008,6.381580233573914E-002,5.185343325138092E-002,-9.767160415649414E-001,-1.288630217313767E-001,6.381580233573914E-002,5.185343325138092E-002,-9.767160415649414E-001,-1.288630217313767E-001,
9.995666666666668E+008,7.014466822147369E-002,4.189762845635414E-002,-9.927477240562439E-001,-9.139619767665863E-002,7.014466822147369E-002,4.189762845635414E-002,-9.927477240562439E-001,-9.139619767665863E-002,
1.007933333333333E+009,7.030774652957916E-002,3.196829557418823E-002,-9.909722208976746E-001,-7.717847079038620E-002,7.030774652957916E-002,3.196829557418823E-002,-9.909722208976746E-001,-7.717847079038620E-002,
1.016300000000000E+009,6.456868350505829E-002,2.534653432667255E-002,-9.928781986236572E-001,-5.073908716440201E-002,6.456868350505829E-002,2.534653432667255E-002,-9.928781986236572E-001,-5.073908716440201E-002,
1.024666666666667E+009,5.747358873486519E-002,1.875132508575916E-002,-9.929129481315613E-001,-1.814723946154118E-002,5.747358873486519E-002,1.875132508575916E-002,-9.929129481315613E-001,-1.814723946154118E-002,
1.033033333333333E+009,5.061874538660049E-002,2.100360579788685E-002,-9.932661056518555E-001,9.569794638082385E-004,5.061874538660049E-002,2.100360579788685E-002,-9.932661056518555E-001,9.569794638082385E-004,
1.041400000000000E+009,4.477302730083466E-002,2.621827647089958E-002,-9.785599708557129E-001,3.852119669318199E-002,4.477302730083466E-002,2.621827647089958E-002,-9.785599708557129E-001,3.852119669318199E-002,
1.049766666666667E+009,4.448271915316582E-002,3.357359394431114E-002,-9.911682605743408E-001,5.860093235969544E-002,4.448271915316582E-002,3.357359394431114E-002,-9.911682605743408E-001,5.860093235969544E-002,
1.058133333333333E+009,5.038860067725182E-002,3.924834728240967E-002,-9.849225878715515E-001,7.755148410797119E-002,5.038860067725182E-002,3.924834728240967E-002,-9.849225878715515E-001,7.755148410797119E-002,
1.066500000000000E+009,6.188496574759483E-002,4.188859835267067E-002,-9.924739003181458E-001,1.167592629790306E-001,6.188496574759483E-002,4.188859835267067E-002,-9.924739003181458E-001,1.167592629790306E-001,
1.074866666666667E+009,7.254189252853394E-002,3.888184949755669E-002,-9.744316339492798E-001,1.340128332376480E-001,7.254189252853394E-002,3.888184949755669E-002,-9.744316339492798E-001,1.340128332376480E-001,
1.083233333333334E+009,8.375772088766098E-002,2.641559205949307E-002,-9.726070761680603E-001,1.553804576396942E-001,8.375772088766098E-002,2.641559205949307E-002,-9.726070761680603E-001,1.553804576396942E-001,
1.091600000000000E+009,9.004522860050201E-002,1.527973823249340E-002,-9.636889696121216E-001,1.767736822366715E-001,9.004522860050201E-002,1.527973823249340E-002,-9.636889696121216E-001,1.767736822366715E-001,
1.099966666666667E+009,9.137795865535736E-002,-1.622007694095373E-004,-9.669672250747681E-001,2.148857563734055E-001,9.137795865535736E-002,-1.622007694095373E-004,-9.669672250747681E-001,2.148857563734055E-001,
1.108333333333334E+009,8.218935132026672E-002,-1.144976541399956E-002,-9.453269839286804E-001,2.189785689115524E-001,8.218935132026672E-002,-1.144976541399956E-002,-9.453269839286804E-001,2.189785689115524E-001,
1.116700000000000E+009,6.830258667469025E-002,-1.264738850295544E-002,-9.458113312721252E-001,2.630189657211304E-001,6.830258667469025E-002,-1.264738850295544E-002,-9.458113312721252E-001,2.630189657211304E-001,
1.125066666666667E+009,5.590385943651199E-002,-1.257268711924553E-002,-9.508324265480042E-001,2.728486061096191E-001,5.590385943651199E-002,-1.257268711924553E-002,-9.508324265480042E-001,2.728486061096191E-001,
1.133433333333334E+009,4.666443541646004E-002,-1.315353787504137E-003,-9.517122507095337E-001,2.981455922126770E-001,4.666443541646004E-002,-1.315353787504137E-003,-9.517122507095337E-001,2.981455922126770E-001,
1.141800000000000E+009,4.556756094098091E-002,9.484110400080681E-003,-9.241144061088562E-001,3.197803795337677E-001,4.556756094098091E-002,9.484110400080681E-003,-9.241144061088562E-001,3.197803795337677E-001,
1.150166666666667E+009,5.208139121532440E-002,2.290604822337627E-002,-9.069976210594177E-001,3.510721325874329E-001,5.208139121532440E-002,2.290604822337627E-002,-9.069976210594177E-001,3.510721325874329E-001,
1.158533333333334E+009,6.611346453428268E-002,2.882957085967064E-002,-9.088136553764343E-001,3.758718371391296E-001,6.611346453428268E-002,2.882957085967064E-002,-9.088136553764343E-001,3.758718371391296E-001,
1.166900000000000E+009,8.534628152847290E-002,2.576429024338722E-002,-8.992331027984619E-001,4.092287719249725E-001,8.534628152847290E-002,2.576429024338722E-002,-8.992331027984619E-001,4.092287719249725E-001,
1.175266666666667E+009,9.970095008611679E-002,1.198609080165625E-002,-8.885951042175293E-001,4.141426682472229E-001,9.970095008611679E-002,1.198609080165625E-002,-8.885951042175293E-001,4.141426682472229E-001,
1.183633333333334E+009,1.103832498192787E-001,-6.222744006663561E-003,-8.763729333877564E-001,4.517948627471924E-001,1.103832498192787E-001,-6.222744006663561E-003,-8.763729333877564E-001,4.517948627471924E-001,
1.192000000000000E+009,1.104168817400932E-001,-2.850901708006859E-002,-8.661799430847168E-001,4.583186805248261E-001,1.104168817400932E-001,-2.850901708006859E-002,-8.661799430847168E-001,4.583186805248261E-001,
1.200366666666667E+009,9.893137961626053E-002,-4.518368467688561E-002,-8.576254248619080E-001,4.857629239559174E-001,9.893137961626053E-002,-4.518368467688561E-002,-8.576254248619080E-001,4.857629239559174E-001,
1.208733333333334E+009,8.297752588987351E-002,-5.566146969795227E-002,-8.524079918861389E-001,5.025611519813538E-001,8.297752588987351E-002,-5.566146969795227E-002,-8.524079918861389E-001,5.025611519813538E-001,
1.217100000000000E+009,6.418751180171967E-002,-5.312165617942810E-002,-8.382049798965454E-001,5.230451226234436E-001,6.418751180171967E-002,-5.312165617942810E-002,-8.382049798965454E-001,5.230451226234436E-001,
1.225466666666667E+009,5.219564586877823E-002,-4.553654417395592E-002,-8.134441375732422E-001,5.502363443374634E-001,5.219564586877823E-002,-4.553654417395592E-002,-8.134441375732422E-001,5.502363443374634E-001,
1.233833333333334E+009,4.506020992994309E-002,-2.974543720483780E-002,-7.978978157043457E-001,5.694689154624939E-001,4.506020992994309E-002,-2.974543720483780E-002,-7.978978157043457E-001,5.694689154624939E-001,
1.242200000000000E+009,4.844920337200165E-002,-1.425442751497030E-002,-7.841386795043945E-001,5.833755731582642E-001,4.844920337200165E-002,-1.425442751497030E-002,-7.841386795043945E-001,5.833755731582642E-001,
1.250566666666667E+009,6.276721507310867E-002,-6.275208666920662E-003,-7.560517191886902E-001,6.116952300071716E-001,6.276721507310867E-002,-6.275208666920662E-003,-7.560517191886902E-001,6.116952300071716E-001,
1.258933333333334E+009,7.971247285604477E-002,-7.939484901726246E-003,-7.658136487007141E-001,6.316695213317871E-001,7.971247285604477E-002,-7.939484901726246E-003,-7.658136487007141E-001,6.316695213317871E-001,
1.267300000000000E+009,9.586603194475174E-002,-2.173996344208717E-002,-7.440146803855896E-001,6.442112922668457E-001,9.586603194475174E-002,-2.173996344208717E-002,-7.440146803855896E-001,6.442112922668457E-001,
1.275666666666667E+009,1.047235950827599E-001,-4.231730848550797E-002,-7.100923061370850E-001,6.665602326393127E-001,1.047235950827599E-001,-4.231730848550797E-002,-7.100923061370850E-001,6.665602326393127E-001,
1.284033333333334E+009,1.021708324551582E-001,-6.623753905296326E-002,-7.030779719352722E-001,6.852834820747376E-001,1.021708324551582E-001,-6.623753905296326E-002,-7.030779719352722E-001,6.852834820747376E-001,
1.292400000000000E+009,8.932776004076004E-002,-8.599793165922165E-002,-6.914536952972412E-001,6.996859908103943E-001,8.932776004076004E-002,-8.599793165922165E-002,-6.914536952972412E-001,6.996859908103943E-001,
1.300766666666667E+009,6.962814182043076E-002,-9.518572688102722E-002,-6.689561605453491E-001,7.151968479156494E-001,6.962814182043076E-002,-9.518572688102722E-002,-6.689561605453491E-001,7.151968479156494E-001,
1.309133333333334E+009,4.650950431823731E-002,-9.443373233079910E-002,-6.581139564514160E-001,7.325152158737183E-001,4.650950431823731E-002,-9.443373233079910E-002,-6.581139564514160E-001,7.325152158737183E-001,
1.317500000000000E+009,3.241832181811333E-002,-8.353318274021149E-002,-6.340000033378601E-001,7.473955750465393E-001,3.241832181811333E-002,-8.353318274021149E-002,-6.340000033378601E-001,7.473955750465393E-001,
1.325866666666667E+009,2.539817988872528E-002,-6.480595469474793E-002,-6.193462014198303E-001,7.627742886543274E-001,2.539817988872528E-002,-6.480595469474793E-002,-6.193462014198303E-001,7.627742886543274E-001,
1.334233333333334E+009,3.066821396350861E-002,-4.851671680808067E-002,-5.911322832107544E-001,7.840459346771240E-001,3.066821396350861E-002,-4.851671680808067E-002,-5.911322832107544E-001,7.840459346771240E-001,
1.342600000000000E+009,4.291638731956482E-002,-4.108988866209984E-002,-5.719788074493408E-001,8.031764626502991E-001,4.291638731956482E-002,-4.108988866209984E-002,-5.719788074493408E-001,8.031764626502991E-001,
1.350966666666667E+009,5.935509130358696E-002,-4.431347921490669E-002,-5.405971407890320E-001,8.277000784873962E-001,5.935509130358696E-002,-4.431347921490669E-002,-5.405971407890320E-001,8.277000784873962E-001,
1.359333333333334E+009,7.354270666837692E-002,-5.757377296686173E-002,-5.287540555000305E-001,8.286283612251282E-001,7.354270666837692E-002,-5.757377296686173E-002,-5.287540555000305E-001,8.286283612251282E-001,
1.367700000000000E+009,7.363256067037582E-002,-8.013714104890823E-002,-5.111305117607117E-001,8.372468352317810E-001,7.363256067037582E-002,-8.013714104890823E-002,-5.111305117607117E-001,8.372468352317810E-001,
1.376066666666667E+009,6.641528755426407E-002,-1.004506945610046E-001,-4.952391386032105E-001,8.524200320243835E-001,6.641528755426407E-002,-1.004506945610046E-001,-4.952391386032105E-001,8.524200320243835E-001,
1.384433333333334E+009,4.727458581328392E-002,-1.187460124492645E-001,-4.704940319061279E-001,8.737823367118835E-001,4.727458581328392E-002,-1.187460124492645E-001,-4.704940319061279E-001,8.737823367118835E-001,
1.392800000000000E+009,2.352930791676045E-002,-1.227604448795319E-001,-4.569321870803833E-001,8.677169680595398E-001,2.352930791676045E-002,-1.227604448795319E-001,-4.569321870803833E-001,8.677169680595398E-001,
1.401166666666667E+009,1.569111249409616E-003,-1.149542108178139E-001,-4.347923994064331E-001,8.862382769584656E-001,1.569111249409616E-003,-1.149542108178139E-001,-4.347923994064331E-001,8.862382769584656E-001,
1.409533333333334E+009,-1.378737762570381E-002,-9.837503731250763E-002,-4.044965803623200E-001,8.983069062232971E-001,-1.378737762570381E-002,-9.837503731250763E-002,-4.044965803623200E-001,8.983069062232971E-001,
1.417900000000000E+009,-1.727213524281979E-002,-7.430368661880493E-002,-3.921253979206085E-001,8.942911028862000E-001,-1.727213524281979E-002,-7.430368661880493E-002,-3.921253979206085E-001,8.942911028862000E-001,
1.426266666666667E+009,-7.751861121505499E-003,-5.777594074606895E-002,-3.591445982456207E-001,9.200029969215393E-001,-7.751861121505499E-003,-5.777594074606895E-002,-3.591445982456207E-001,9.200029969215393E-001,
1.434633333333334E+009,9.285929612815380E-003,-4.726227745413780E-002,-3.258083164691925E-001,9.305446147918701E-001,9.285929612815380E-003,-4.726227745413780E-002,-3.258083164691925E-001,9.305446147918701E-001,
1.443000000000000E+009,2.716856822371483E-002,-4.951275885105133E-002,-3.087107539176941E-001,9.349951744079590E-001,2.716856822371483E-002,-4.951275885105133E-002,-3.087107539176941E-001,9.349951744079590E-001,
1.451366666666667E+009,4.089848697185516E-002,-6.274341046810150E-002,-2.756608426570892E-001,9.382570981979370E-001,4.089848697185516E-002,-6.274341046810150E-002,-2.756608426570892E-001,9.382570981979370E-001,
1.459733333333334E+009,4.542957991361618E-002,-8.597775548696518E-002,-2.579468190670013E-001,9.404423832893372E-001,4.542957991361618E-002,-8.597775548696518E-002,-2.579468190670013E-001,9.404423832893372E-001,
