% Version 1.00
%
%freq[Hz],re:Trc1_S11,im:Trc1_S11,re:Trc2_S21,im:Trc2_S21,re:Trc3_S11,im:Trc3_S11,re:Trc4_S21,im:Trc4_S21,
6.900000000000000E+008,-1.736533828079701E-002,1.640975102782250E-002,-4.652911424636841E-001,-8.721087574958801E-001,-1.736533828079701E-002,1.640975102782250E-002,-4.652911424636841E-001,-8.721087574958801E-001,
6.983666666666666E+008,-7.711245678365231E-003,1.755069755017757E-002,-4.889048933982849E-001,-8.638601899147034E-001,-7.711245678365231E-003,1.755069755017757E-002,-4.889048933982849E-001,-8.638601899147034E-001,
7.067333333333334E+008,-6.935791461728513E-004,1.271519530564547E-002,-5.354580283164978E-001,-8.035510778427124E-001,-6.935791461728513E-004,1.271519530564547E-002,-5.354580283164978E-001,-8.035510778427124E-001,
7.151000000000000E+008,3.707422001753002E-004,4.639998078346252E-003,-5.528391003608704E-001,-8.177187442779541E-001,3.707422001753002E-004,4.639998078346252E-003,-5.528391003608704E-001,-8.177187442779541E-001,
7.234666666666666E+008,-2.499714260920882E-003,-1.481296727433801E-003,-5.647947192192078E-001,-8.065596222877502E-001,-2.499714260920882E-003,-1.481296727433801E-003,-5.647947192192078E-001,-8.065596222877502E-001,
7.318333333333334E+008,-9.508071467280388E-003,-5.237470846623182E-003,-5.794141888618469E-001,-8.058757185935974E-001,-9.508071467280388E-003,-5.237470846623182E-003,-5.794141888618469E-001,-8.058757185935974E-001,
7.402000000000000E+008,-1.660999283194542E-002,-6.009397096931934E-003,-6.244567632675171E-001,-7.907973527908325E-001,-1.660999283194542E-002,-6.009397096931934E-003,-6.244567632675171E-001,-7.907973527908325E-001,
7.485666666666666E+008,-2.492381632328033E-002,-1.282175886444747E-003,-6.228317022323608E-001,-7.877137064933777E-001,-2.492381632328033E-002,-1.282175886444747E-003,-6.228317022323608E-001,-7.877137064933777E-001,
7.569333333333334E+008,-2.790041826665402E-002,5.692097824066877E-003,-6.309867501258850E-001,-7.666250467300415E-001,-2.790041826665402E-002,5.692097824066877E-003,-6.309867501258850E-001,-7.666250467300415E-001,
7.653000000000000E+008,-2.486449666321278E-002,1.299651339650154E-002,-6.503093838691711E-001,-7.482659816741943E-001,-2.486449666321278E-002,1.299651339650154E-002,-6.503093838691711E-001,-7.482659816741943E-001,
7.736666666666666E+008,-1.891083084046841E-002,1.946156844496727E-002,-6.842066049575806E-001,-7.240008711814880E-001,-1.891083084046841E-002,1.946156844496727E-002,-6.842066049575806E-001,-7.240008711814880E-001,
7.820333333333334E+008,-1.073722355067730E-002,2.253227680921555E-002,-6.961475014686585E-001,-7.119646072387695E-001,-1.073722355067730E-002,2.253227680921555E-002,-6.961475014686585E-001,-7.119646072387695E-001,
7.904000000000000E+008,-8.043585112318397E-004,2.169044315814972E-002,-7.009825706481934E-001,-6.907499432563782E-001,-8.043585112318397E-004,2.169044315814972E-002,-7.009825706481934E-001,-6.907499432563782E-001,
7.987666666666666E+008,4.249345045536757E-003,1.638321578502655E-002,-7.363229393959045E-001,-6.715365052223206E-001,4.249345045536757E-003,1.638321578502655E-002,-7.363229393959045E-001,-6.715365052223206E-001,
8.071333333333334E+008,7.392141502350569E-003,1.097805518656969E-002,-7.411033511161804E-001,-6.602805852890015E-001,7.392141502350569E-003,1.097805518656969E-002,-7.411033511161804E-001,-6.602805852890015E-001,
8.155000000000000E+008,2.107876585796475E-003,3.987143281847239E-003,-7.649841904640198E-001,-6.401298046112061E-001,2.107876585796475E-003,3.987143281847239E-003,-7.649841904640198E-001,-6.401298046112061E-001,
8.238666666666666E+008,-2.403694437816739E-003,-7.608835585415363E-004,-7.667173147201538E-001,-6.113345623016357E-001,-2.403694437816739E-003,-7.608835585415363E-004,-7.667173147201538E-001,-6.113345623016357E-001,
8.322333333333334E+008,-1.041062269359827E-002,-1.188259455375373E-003,-7.886624336242676E-001,-5.932599306106567E-001,-1.041062269359827E-002,-1.188259455375373E-003,-7.886624336242676E-001,-5.932599306106567E-001,
8.406000000000000E+008,-1.772006228566170E-002,2.301483182236552E-003,-8.000200986862183E-001,-5.817132592201233E-001,-1.772006228566170E-002,2.301483182236552E-003,-8.000200986862183E-001,-5.817132592201233E-001,
8.489666666666668E+008,-2.268651686608791E-002,8.707758970558643E-003,-8.108534812927246E-001,-5.674271583557129E-001,-2.268651686608791E-002,8.707758970558643E-003,-8.108534812927246E-001,-5.674271583557129E-001,
8.573333333333334E+008,-2.211160026490688E-002,1.670830696821213E-002,-8.297457098960877E-001,-5.280723571777344E-001,-2.211160026490688E-002,1.670830696821213E-002,-8.297457098960877E-001,-5.280723571777344E-001,
8.657000000000000E+008,-1.591713167726994E-002,2.369701489806175E-002,-8.474290370941162E-001,-5.097388625144959E-001,-1.591713167726994E-002,2.369701489806175E-002,-8.474290370941162E-001,-5.097388625144959E-001,
8.740666666666668E+008,-8.998692035675049E-003,2.700201049447060E-002,-8.463664054870606E-001,-4.977555274963379E-001,-8.998692035675049E-003,2.700201049447060E-002,-8.463664054870606E-001,-4.977555274963379E-001,
8.824333333333334E+008,4.086060216650367E-004,2.687654271721840E-002,-8.642323613166809E-001,-4.835907518863678E-001,4.086060216650367E-004,2.687654271721840E-002,-8.642323613166809E-001,-4.835907518863678E-001,
8.908000000000000E+008,8.998574689030647E-003,2.254542522132397E-002,-8.662047386169434E-001,-4.519269764423370E-001,8.998574689030647E-003,2.254542522132397E-002,-8.662047386169434E-001,-4.519269764423370E-001,
8.991666666666668E+008,1.268192473798990E-002,1.593702845275402E-002,-8.818517923355103E-001,-4.258393347263336E-001,1.268192473798990E-002,1.593702845275402E-002,-8.818517923355103E-001,-4.258393347263336E-001,
9.075333333333334E+008,1.230541616678238E-002,8.833386935293675E-003,-9.126062989234924E-001,-4.090724885463715E-001,1.230541616678238E-002,8.833386935293675E-003,-9.126062989234924E-001,-4.090724885463715E-001,
9.159000000000000E+008,8.617011830210686E-003,6.061014719307423E-003,-9.187809824943543E-001,-3.813742399215698E-001,8.617011830210686E-003,6.061014719307423E-003,-9.187809824943543E-001,-3.813742399215698E-001,
9.242666666666668E+008,2.557699568569660E-003,2.672285074368119E-003,-9.253262281417847E-001,-3.674952685832977E-001,2.557699568569660E-003,2.672285074368119E-003,-9.253262281417847E-001,-3.674952685832977E-001,
9.326333333333334E+008,-6.101361010223627E-003,3.319747513160110E-003,-9.468963742256165E-001,-3.456636071205139E-001,-6.101361010223627E-003,3.319747513160110E-003,-9.468963742256165E-001,-3.456636071205139E-001,
9.410000000000000E+008,-1.116415485739708E-002,7.798827718943358E-003,-9.414358735084534E-001,-3.127485811710358E-001,-1.116415485739708E-002,7.798827718943358E-003,-9.414358735084534E-001,-3.127485811710358E-001,
9.493666666666668E+008,-1.402447372674942E-002,1.436210144311190E-002,-9.410735368728638E-001,-2.955355048179627E-001,-1.402447372674942E-002,1.436210144311190E-002,-9.410735368728638E-001,-2.955355048179627E-001,
9.577333333333334E+008,-1.282568648457527E-002,2.318298630416393E-002,-9.576468467712402E-001,-2.732092142105103E-001,-1.282568648457527E-002,2.318298630416393E-002,-9.576468467712402E-001,-2.732092142105103E-001,
9.661000000000000E+008,-6.205362267792225E-003,3.040244244039059E-002,-9.578687548637390E-001,-2.490212023258209E-001,-6.205362267792225E-003,3.040244244039059E-002,-9.578687548637390E-001,-2.490212023258209E-001,
9.744666666666668E+008,1.394449966028333E-003,3.175160288810730E-002,-9.651280641555786E-001,-2.254127115011215E-001,1.394449966028333E-003,3.175160288810730E-002,-9.651280641555786E-001,-2.254127115011215E-001,
9.828333333333334E+008,1.393860671669245E-002,2.957017906010151E-002,-9.686038494110107E-001,-2.047436386346817E-001,1.393860671669245E-002,2.957017906010151E-002,-9.686038494110107E-001,-2.047436386346817E-001,
9.912000000000000E+008,2.098012156784535E-002,2.365451119840145E-002,-9.696468710899353E-001,-1.776114404201508E-001,2.098012156784535E-002,2.365451119840145E-002,-9.696468710899353E-001,-1.776114404201508E-001,
9.995666666666668E+008,2.713116817176342E-002,1.574110426008701E-002,-9.871164560317993E-001,-1.410049349069595E-001,2.713116817176342E-002,1.574110426008701E-002,-9.871164560317993E-001,-1.410049349069595E-001,
1.007933333333333E+009,2.684396132826805E-002,6.770505569875240E-003,-9.847900271415710E-001,-1.259714365005493E-001,2.684396132826805E-002,6.770505569875240E-003,-9.847900271415710E-001,-1.259714365005493E-001,
1.016300000000000E+009,2.081318944692612E-002,1.232284470461309E-003,-9.876852035522461E-001,-9.952411800622940E-002,2.081318944692612E-002,1.232284470461309E-003,-9.876852035522461E-001,-9.952411800622940E-002,
1.024666666666667E+009,1.314180344343185E-002,-4.858848638832569E-003,-9.891914129257202E-001,-6.819377094507217E-002,1.314180344343185E-002,-4.858848638832569E-003,-9.891914129257202E-001,-6.819377094507217E-002,
1.033033333333333E+009,5.455700214952231E-003,-1.836887444369495E-003,-9.889746308326721E-001,-5.000104010105133E-002,5.455700214952231E-003,-1.836887444369495E-003,-9.889746308326721E-001,-5.000104010105133E-002,
1.041400000000000E+009,-1.796243363060057E-003,4.240250214934349E-003,-9.768930673599243E-001,-1.188956201076508E-002,-1.796243363060057E-003,4.240250214934349E-003,-9.768930673599243E-001,-1.188956201076508E-002,
1.049766666666667E+009,-4.399889614433050E-003,1.290142629295588E-002,-9.899226427078247E-001,6.030051968991756E-003,-4.399889614433050E-003,1.290142629295588E-002,-9.899226427078247E-001,6.030051968991756E-003,
1.058133333333333E+009,-6.190152489580214E-004,2.024506404995918E-002,-9.858617186546326E-001,2.343341708183289E-002,-6.190152489580214E-004,2.024506404995918E-002,-9.858617186546326E-001,2.343341708183289E-002,
1.066500000000000E+009,8.140367455780506E-003,2.565493248403072E-002,-9.950112700462341E-001,6.107965111732483E-002,8.140367455780506E-003,2.565493248403072E-002,-9.950112700462341E-001,6.107965111732483E-002,
1.074866666666667E+009,1.810662262141705E-002,2.487071976065636E-002,-9.788523912429810E-001,7.946272939443588E-002,1.810662262141705E-002,2.487071976065636E-002,-9.788523912429810E-001,7.946272939443588E-002,
1.083233333333334E+009,2.861686050891876E-002,1.542617660015822E-002,-9.785609245300293E-001,1.007611081004143E-001,2.861686050891876E-002,1.542617660015822E-002,-9.785609245300293E-001,1.007611081004143E-001,
1.091600000000000E+009,3.501356393098831E-002,6.107401568442583E-003,-9.710749983787537E-001,1.228278800845146E-001,3.501356393098831E-002,6.107401568442583E-003,-9.710749983787537E-001,1.228278800845146E-001,
1.099966666666667E+009,3.625539317727089E-002,-7.177273742854595E-003,-9.761264920234680E-001,1.601620763540268E-001,3.625539317727089E-002,-7.177273742854595E-003,-9.761264920234680E-001,1.601620763540268E-001,
1.108333333333334E+009,2.789644151926041E-002,-1.769619807600975E-002,-9.542639255523682E-001,1.641970872879028E-001,2.789644151926041E-002,-1.769619807600975E-002,-9.542639255523682E-001,1.641970872879028E-001,
1.116700000000000E+009,1.558034401386976E-002,-1.803709194064140E-002,-9.571256637573242E-001,2.090224921703339E-001,1.558034401386976E-002,-1.803709194064140E-002,-9.571256637573242E-001,2.090224921703339E-001,
1.125066666666667E+009,2.072094241157174E-003,-1.826708018779755E-002,-9.622074365615845E-001,2.176559120416641E-001,2.072094241157174E-003,-1.826708018779755E-002,-9.622074365615845E-001,2.176559120416641E-001,
1.133433333333334E+009,-8.367558009922504E-003,-6.340989377349615E-003,-9.639655947685242E-001,2.417123913764954E-001,-8.367558009922504E-003,-6.340989377349615E-003,-9.639655947685242E-001,2.417123913764954E-001,
1.141800000000000E+009,-1.143799256533384E-002,5.792526062577963E-003,-9.379783272743225E-001,2.635057866573334E-001,-1.143799256533384E-002,5.792526062577963E-003,-9.379783272743225E-001,2.635057866573334E-001,
1.150166666666667E+009,-7.669251412153244E-003,2.182241901755333E-002,-9.246683716773987E-001,2.944944798946381E-001,-7.669251412153244E-003,2.182241901755333E-002,-9.246683716773987E-001,2.944944798946381E-001,
1.158533333333334E+009,4.505419172346592E-003,3.103549405932427E-002,-9.283570647239685E-001,3.191097676753998E-001,4.505419172346592E-003,3.103549405932427E-002,-9.283570647239685E-001,3.191097676753998E-001,
1.166900000000000E+009,2.210728451609612E-002,3.238993138074875E-002,-9.212044477462769E-001,3.522896170616150E-001,2.210728451609612E-002,3.238993138074875E-002,-9.212044477462769E-001,3.522896170616150E-001,
1.175266666666667E+009,3.743506595492363E-002,2.299717068672180E-002,-9.119408726692200E-001,3.582701385021210E-001,3.743506595492363E-002,2.299717068672180E-002,-9.119408726692200E-001,3.582701385021210E-001,
1.183633333333334E+009,4.935123026371002E-002,8.517873473465443E-003,-9.033427834510803E-001,3.970782756805420E-001,4.935123026371002E-002,8.517873473465443E-003,-9.033427834510803E-001,3.970782756805420E-001,
1.192000000000000E+009,5.159777030348778E-002,-1.158817950636149E-002,-8.933036327362061E-001,4.050302505493164E-001,5.159777030348778E-002,-1.158817950636149E-002,-8.933036327362061E-001,4.050302505493164E-001,
1.200366666666667E+009,4.259306564927101E-002,-2.729828655719757E-002,-8.857393264770508E-001,4.324713647365570E-001,4.259306564927101E-002,-2.729828655719757E-002,-8.857393264770508E-001,4.324713647365570E-001,
1.208733333333334E+009,2.825074084103108E-002,-3.820426389575005E-002,-8.807787895202637E-001,4.496226012706757E-001,2.825074084103108E-002,-3.820426389575005E-002,-8.807787895202637E-001,4.496226012706757E-001,
1.217100000000000E+009,1.011567097157240E-002,-3.575843572616577E-002,-8.666101694107056E-001,4.695088863372803E-001,1.011567097157240E-002,-3.575843572616577E-002,-8.666101694107056E-001,4.695088863372803E-001,
1.225466666666667E+009,-2.275197068229318E-003,-2.784136869013310E-002,-8.442633748054504E-001,4.970337748527527E-001,-2.275197068229318E-003,-2.784136869013310E-002,-8.442633748054504E-001,4.970337748527527E-001,
1.233833333333334E+009,-1.109465304762125E-002,-1.198041625320911E-002,-8.299300670623779E-001,5.155717730522156E-001,-1.109465304762125E-002,-1.198041625320911E-002,-8.299300670623779E-001,5.155717730522156E-001,
1.242200000000000E+009,-1.015546172857285E-002,5.886421073228121E-003,-8.169530630111694E-001,5.286020040512085E-001,-1.015546172857285E-002,5.886421073228121E-003,-8.169530630111694E-001,5.286020040512085E-001,
1.250566666666667E+009,2.410382032394409E-003,1.782708056271076E-002,-7.936103343963623E-001,5.581272840499878E-001,2.410382032394409E-003,1.782708056271076E-002,-7.936103343963623E-001,5.581272840499878E-001,
1.258933333333334E+009,1.946170814335346E-002,2.153548225760460E-002,-8.049988746643066E-001,5.776046514511108E-001,1.946170814335346E-002,2.153548225760460E-002,-8.049988746643066E-001,5.776046514511108E-001,
1.267300000000000E+009,3.722841292619705E-002,1.305496972054243E-002,-7.860227227210999E-001,5.916353464126587E-001,3.722841292619705E-002,1.305496972054243E-002,-7.860227227210999E-001,5.916353464126587E-001,
1.275666666666667E+009,4.842559993267059E-002,-4.092781338840723E-003,-7.544997334480286E-001,6.174592375755310E-001,4.842559993267059E-002,-4.092781338840723E-003,-7.544997334480286E-001,6.174592375755310E-001,
1.284033333333334E+009,4.957833513617516E-002,-2.549116872251034E-002,-7.483615875244141E-001,6.378776431083679E-001,4.957833513617516E-002,-2.549116872251034E-002,-7.483615875244141E-001,6.378776431083679E-001,
1.292400000000000E+009,4.020761698484421E-002,-4.437684267759323E-002,-7.370800971984863E-001,6.537866592407227E-001,4.020761698484421E-002,-4.437684267759323E-002,-7.370800971984863E-001,6.537866592407227E-001,
1.300766666666667E+009,2.292292751371861E-002,-5.506796017289162E-002,-7.144267559051514E-001,6.708567738533020E-001,2.292292751371861E-002,-5.506796017289162E-002,-7.144267559051514E-001,6.708567738533020E-001,
1.309133333333334E+009,1.484100241214037E-003,-5.502713099122047E-002,-7.031630277633667E-001,6.878548264503479E-001,1.484100241214037E-003,-5.502713099122047E-002,-7.031630277633667E-001,6.878548264503479E-001,
1.317500000000000E+009,-1.376763172447681E-002,-4.452754557132721E-002,-6.805298924446106E-001,7.029666304588318E-001,-1.376763172447681E-002,-4.452754557132721E-002,-6.805298924446106E-001,7.029666304588318E-001,
1.325866666666667E+009,-2.154968865215778E-002,-2.552291378378868E-002,-6.669542193412781E-001,7.181212306022644E-001,-2.154968865215778E-002,-2.552291378378868E-002,-6.669542193412781E-001,7.181212306022644E-001,
1.334233333333334E+009,-1.779524981975555E-002,-7.022193167358637E-003,-6.409984230995178E-001,7.399849295616150E-001,-1.779524981975555E-002,-7.022193167358637E-003,-6.409984230995178E-001,7.399849295616150E-001,
1.342600000000000E+009,-6.111023947596550E-003,4.555179737508297E-003,-6.242257952690125E-001,7.593309283256531E-001,-6.111023947596550E-003,4.555179737508297E-003,-6.242257952690125E-001,7.593309283256531E-001,
1.350966666666667E+009,1.132718008011580E-002,6.541659124195576E-003,-5.966990590095520E-001,7.861108779907227E-001,1.132718008011580E-002,6.541659124195576E-003,-5.966990590095520E-001,7.861108779907227E-001,
1.359333333333334E+009,2.731543406844139E-002,-2.150367712602019E-003,-5.853837728500366E-001,7.885509133338928E-001,2.731543406844139E-002,-2.150367712602019E-003,-5.853837728500366E-001,7.885509133338928E-001,
1.367700000000000E+009,3.243211656808853E-002,-2.157432027161121E-002,-5.688923597335815E-001,7.985375523567200E-001,3.243211656808853E-002,-2.157432027161121E-002,-5.688923597335815E-001,7.985375523567200E-001,
1.376066666666667E+009,3.000133857131004E-002,-4.045919701457024E-002,-5.539407730102539E-001,8.163416981697083E-001,3.000133857131004E-002,-4.045919701457024E-002,-5.539407730102539E-001,8.163416981697083E-001,
1.384433333333334E+009,1.480541937053204E-002,-5.937806516885757E-002,-5.302692651748657E-001,8.397451043128967E-001,1.480541937053204E-002,-5.937806516885757E-002,-5.302692651748657E-001,8.397451043128967E-001,
1.392800000000000E+009,-6.350301671773195E-003,-6.533715873956680E-002,-5.156968235969544E-001,8.345766067504883E-001,-6.350301671773195E-003,-6.533715873956680E-002,-5.156968235969544E-001,8.345766067504883E-001,
1.401166666666667E+009,-2.786949276924133E-002,-5.944698676466942E-002,-4.932042360305786E-001,8.544789552688599E-001,-2.786949276924133E-002,-5.944698676466942E-002,-4.932042360305786E-001,8.544789552688599E-001,
1.409533333333334E+009,-4.374514520168304E-002,-4.485782235860825E-002,-4.632331728935242E-001,8.660492300987244E-001,-4.374514520168304E-002,-4.485782235860825E-002,-4.632331728935242E-001,8.660492300987244E-001,
1.417900000000000E+009,-4.888491705060005E-002,-2.042483910918236E-002,-4.510202109813690E-001,8.610002398490906E-001,-4.888491705060005E-002,-2.042483910918236E-002,-4.510202109813690E-001,8.610002398490906E-001,
1.426266666666667E+009,-4.059627652168274E-002,-1.198305515572429E-003,-4.215406477451325E-001,8.880299925804138E-001,-4.059627652168274E-002,-1.198305515572429E-003,-4.215406477451325E-001,8.880299925804138E-001,
1.434633333333334E+009,-2.399571426212788E-002,1.318657211959362E-002,-3.907332122325897E-001,8.989051580429077E-001,-2.399571426212788E-002,1.318657211959362E-002,-3.907332122325897E-001,8.989051580429077E-001,
1.443000000000000E+009,-3.794154850766063E-003,1.614000089466572E-002,-3.761077821254730E-001,9.049896597862244E-001,-3.794154850766063E-003,1.614000089466572E-002,-3.761077821254730E-001,9.049896597862244E-001,
1.451366666666667E+009,1.371777337044478E-002,7.194823585450649E-003,-3.462387621402741E-001,9.107958078384399E-001,1.371777337044478E-002,7.194823585450649E-003,-3.462387621402741E-001,9.107958078384399E-001,
1.459733333333334E+009,2.397373132407665E-002,-1.275160536170006E-002,-3.293674886226654E-001,9.174048900604248E-001,2.397373132407665E-002,-1.275160536170006E-002,-3.293674886226654E-001,9.174048900604248E-001,
