% Version 1.00
%
%freq[Hz],re:Trc1_S11,im:Trc1_S11,re:Trc2_S21,im:Trc2_S21,re:Trc3_S11,im:Trc3_S11,re:Trc4_S21,im:Trc4_S21,
6.900000000000000E+008,-1.707168854773045E-002,1.632346585392952E-002,-4.650352299213409E-001,-8.717955350875855E-001,-1.707168854773045E-002,1.632346585392952E-002,-4.650352299213409E-001,-8.717955350875855E-001,
6.983666666666666E+008,-7.466303650289774E-003,1.726495102047920E-002,-4.890837967395783E-001,-8.639193177223206E-001,-7.466303650289774E-003,1.726495102047920E-002,-4.890837967395783E-001,-8.639193177223206E-001,
7.067333333333334E+008,-6.681473460048437E-004,1.227898523211479E-002,-5.353878736495972E-001,-8.031703233718872E-001,-6.681473460048437E-004,1.227898523211479E-002,-5.353878736495972E-001,-8.031703233718872E-001,
7.151000000000000E+008,9.490345837548375E-005,4.181503783911467E-003,-5.530273318290710E-001,-8.178576827049255E-001,9.490345837548375E-005,4.181503783911467E-003,-5.530273318290710E-001,-8.178576827049255E-001,
7.234666666666666E+008,-2.998775569722056E-003,-1.810942543670535E-003,-5.653074383735657E-001,-8.071512579917908E-001,-2.998775569722056E-003,-1.810942543670535E-003,-5.653074383735657E-001,-8.071512579917908E-001,
7.318333333333334E+008,-1.016002427786589E-002,-5.326307844370604E-003,-5.797349810600281E-001,-8.059757947921753E-001,-1.016002427786589E-002,-5.326307844370604E-003,-5.797349810600281E-001,-8.059757947921753E-001,
7.402000000000000E+008,-1.720886677503586E-002,-5.917872302234173E-003,-6.248028874397278E-001,-7.911282777786255E-001,-1.720886677503586E-002,-5.917872302234173E-003,-6.248028874397278E-001,-7.911282777786255E-001,
7.485666666666666E+008,-2.536300569772720E-002,-1.001261989586055E-003,-6.232901811599731E-001,-7.881484627723694E-001,-2.536300569772720E-002,-1.001261989586055E-003,-6.232901811599731E-001,-7.881484627723694E-001,
7.569333333333334E+008,-2.812140621244907E-002,6.021240260452032E-003,-6.316490769386292E-001,-7.666987180709839E-001,-2.812140621244907E-002,6.021240260452032E-003,-6.316490769386292E-001,-7.666987180709839E-001,
7.653000000000000E+008,-2.487556263804436E-002,1.324514113366604E-002,-6.511684060096741E-001,-7.486496567726135E-001,-2.487556263804436E-002,1.324514113366604E-002,-6.511684060096741E-001,-7.486496567726135E-001,
7.736666666666666E+008,-1.875422336161137E-002,1.950692757964134E-002,-6.846170425415039E-001,-7.243906259536743E-001,-1.875422336161137E-002,1.950692757964134E-002,-6.846170425415039E-001,-7.243906259536743E-001,
7.820333333333334E+008,-1.054155640304089E-002,2.236761897802353E-002,-6.967639327049255E-001,-7.124227881431580E-001,-1.054155640304089E-002,2.236761897802353E-002,-6.967639327049255E-001,-7.124227881431580E-001,
7.904000000000000E+008,-6.563835777342320E-004,2.137623354792595E-002,-7.016600966453552E-001,-6.913161277770996E-001,-6.563835777342320E-004,2.137623354792595E-002,-7.016600966453552E-001,-6.913161277770996E-001,
7.987666666666666E+008,4.206108395010233E-003,1.605564355850220E-002,-7.368406057357788E-001,-6.719597578048706E-001,4.206108395010233E-003,1.605564355850220E-002,-7.368406057357788E-001,-6.719597578048706E-001,
8.071333333333334E+008,7.154136896133423E-003,1.071641873568296E-002,-7.418256402015686E-001,-6.609228253364563E-001,7.154136896133423E-003,1.071641873568296E-002,-7.418256402015686E-001,-6.609228253364563E-001,
8.155000000000000E+008,1.781526720151305E-003,3.891453845426440E-003,-7.659758925437927E-001,-6.406877040863037E-001,1.781526720151305E-003,3.891453845426440E-003,-7.659758925437927E-001,-6.406877040863037E-001,
8.238666666666666E+008,-2.766327001154423E-003,-7.047043181955814E-004,-7.677338123321533E-001,-6.120740175247192E-001,-2.766327001154423E-003,-7.047043181955814E-004,-7.677338123321533E-001,-6.120740175247192E-001,
8.322333333333334E+008,-1.076736487448216E-002,-1.031014486216009E-003,-7.898166179656982E-001,-5.942051410675049E-001,-1.076736487448216E-002,-1.031014486216009E-003,-7.898166179656982E-001,-5.942051410675049E-001,
8.406000000000000E+008,-1.794215850532055E-002,2.530622994527221E-003,-8.013949394226074E-001,-5.825497508049011E-001,-1.794215850532055E-002,2.530622994527221E-003,-8.013949394226074E-001,-5.825497508049011E-001,
8.489666666666668E+008,-2.279012650251389E-002,8.866086602210999E-003,-8.123577237129211E-001,-5.682838559150696E-001,-2.279012650251389E-002,8.866086602210999E-003,-8.123577237129211E-001,-5.682838559150696E-001,
8.573333333333334E+008,-2.215075865387917E-002,1.680302433669567E-002,-8.314778804779053E-001,-5.288944840431213E-001,-2.215075865387917E-002,1.680302433669567E-002,-8.314778804779053E-001,-5.288944840431213E-001,
8.657000000000000E+008,-1.595705561339855E-002,2.363668382167816E-002,-8.496003746986389E-001,-5.098400115966797E-001,-1.595705561339855E-002,2.363668382167816E-002,-8.496003746986389E-001,-5.098400115966797E-001,
8.740666666666668E+008,-9.053620509803295E-003,2.689115144312382E-002,-8.481094837188721E-001,-4.981435537338257E-001,-9.053620509803295E-003,2.689115144312382E-002,-8.481094837188721E-001,-4.981435537338257E-001,
8.824333333333334E+008,2.986531180795282E-004,2.673265337944031E-002,-8.660423159599304E-001,-4.840040504932404E-001,2.986531180795282E-004,2.673265337944031E-002,-8.660423159599304E-001,-4.840040504932404E-001,
8.908000000000000E+008,8.875636383891106E-003,2.243728749454022E-002,-8.681607842445374E-001,-4.524013698101044E-001,8.875636383891106E-003,2.243728749454022E-002,-8.681607842445374E-001,-4.524013698101044E-001,
8.991666666666668E+008,1.257106568664312E-002,1.594645902514458E-002,-8.837273120880127E-001,-4.262342751026154E-001,1.257106568664312E-002,1.594645902514458E-002,-8.837273120880127E-001,-4.262342751026154E-001,
9.075333333333334E+008,1.222397200763226E-002,8.919958025217056E-003,-9.140427112579346E-001,-4.093982875347138E-001,1.222397200763226E-002,8.919958025217056E-003,-9.140427112579346E-001,-4.093982875347138E-001,
9.159000000000000E+008,8.694023825228214E-003,6.212001666426659E-003,-9.208269119262695E-001,-3.810292184352875E-001,8.694023825228214E-003,6.212001666426659E-003,-9.208269119262695E-001,-3.810292184352875E-001,
9.242666666666668E+008,2.713998779654503E-003,2.855283906683326E-003,-9.271184206008911E-001,-3.674565553665161E-001,2.713998779654503E-003,2.855283906683326E-003,-9.271184206008911E-001,-3.674565553665161E-001,
9.326333333333334E+008,-5.886584520339966E-003,3.466455033048987E-003,-9.485011696815491E-001,-3.455449640750885E-001,-5.886584520339966E-003,3.466455033048987E-003,-9.485011696815491E-001,-3.455449640750885E-001,
9.410000000000000E+008,-1.092547178268433E-002,7.907505147159100E-003,-9.429090023040772E-001,-3.125760555267334E-001,-1.092547178268433E-002,7.907505147159100E-003,-9.429090023040772E-001,-3.125760555267334E-001,
9.493666666666668E+008,-1.381949800997973E-002,1.444096211344004E-002,-9.428080916404724E-001,-2.954961657524109E-001,-1.381949800997973E-002,1.444096211344004E-002,-9.428080916404724E-001,-2.954961657524109E-001,
9.577333333333334E+008,-1.273964345455170E-002,2.327721938490868E-002,-9.596389532089233E-001,-2.729938626289368E-001,-1.273964345455170E-002,2.327721938490868E-002,-9.596389532089233E-001,-2.729938626289368E-001,
9.661000000000000E+008,-6.220504175871611E-003,3.049172647297382E-002,-9.595596194267273E-001,-2.491172254085541E-001,-6.220504175871611E-003,3.049172647297382E-002,-9.595596194267273E-001,-2.491172254085541E-001,
9.744666666666668E+008,1.383018912747502E-003,3.194215521216393E-002,-9.667837619781494E-001,-2.255855947732925E-001,1.383018912747502E-003,3.194215521216393E-002,-9.667837619781494E-001,-2.255855947732925E-001,
9.828333333333334E+008,1.398808415979147E-002,2.985261566936970E-002,-9.706031680107117E-001,-2.048894017934799E-001,1.398808415979147E-002,2.985261566936970E-002,-9.706031680107117E-001,-2.048894017934799E-001,
9.912000000000000E+008,2.112048491835594E-002,2.400675229728222E-002,-9.716962575912476E-001,-1.776617169380188E-001,2.112048491835594E-002,2.400675229728222E-002,-9.716962575912476E-001,-1.776617169380188E-001,
9.995666666666668E+008,2.735541574656963E-002,1.609407924115658E-002,-9.891948103904724E-001,-1.409623473882675E-001,2.735541574656963E-002,1.609407924115658E-002,-9.891948103904724E-001,-1.409623473882675E-001,
1.007933333333333E+009,2.714248001575470E-002,7.085904013365507E-003,-9.870131611824036E-001,-1.262701153755188E-001,2.714248001575470E-002,7.085904013365507E-003,-9.870131611824036E-001,-1.262701153755188E-001,
1.016300000000000E+009,2.115417085587978E-002,1.450440613552928E-003,-9.900287389755249E-001,-9.970745444297791E-002,2.115417085587978E-002,1.450440613552928E-003,-9.900287389755249E-001,-9.970745444297791E-002,
1.024666666666667E+009,1.347704697400332E-002,-4.745988640934229E-003,-9.917961359024048E-001,-6.831786036491394E-002,1.347704697400332E-002,-4.745988640934229E-003,-9.917961359024048E-001,-6.831786036491394E-002,
1.033033333333333E+009,5.676033440977335E-003,-1.802498009055853E-003,-9.919126629829407E-001,-5.022372305393219E-002,5.676033440977335E-003,-1.802498009055853E-003,-9.919126629829407E-001,-5.022372305393219E-002,
1.041400000000000E+009,-1.625415170565248E-003,4.252761602401733E-003,-9.797335863113403E-001,-1.167224720120430E-002,-1.625415170565248E-003,4.252761602401733E-003,-9.797335863113403E-001,-1.167224720120430E-002,
1.049766666666667E+009,-4.266909323632717E-003,1.298684440553188E-002,-9.929897785186768E-001,6.783620920032263E-003,-4.266909323632717E-003,1.298684440553188E-002,-9.929897785186768E-001,6.783620920032263E-003,
1.058133333333333E+009,-5.090978811495006E-004,2.037088759243488E-002,-9.887667298316956E-001,2.420216612517834E-002,-5.090978811495006E-004,2.037088759243488E-002,-9.887667298316956E-001,2.420216612517834E-002,
1.066500000000000E+009,8.332564495503902E-003,2.582760900259018E-002,-9.981245994567871E-001,6.180051341652870E-002,8.332564495503902E-003,2.582760900259018E-002,-9.981245994567871E-001,6.180051341652870E-002,
1.074866666666667E+009,1.845964603126049E-002,2.503488957881928E-002,-9.818112254142761E-001,8.031050115823746E-002,1.845964603126049E-002,2.503488957881928E-002,-9.818112254142761E-001,8.031050115823746E-002,
1.083233333333334E+009,2.914759144186974E-002,1.548242755234242E-002,-9.817516207695007E-001,1.017549782991409E-001,2.914759144186974E-002,1.548242755234242E-002,-9.817516207695007E-001,1.017549782991409E-001,
1.091600000000000E+009,3.565360978245735E-002,6.090765818953514E-003,-9.740980863571167E-001,1.239812076091766E-001,3.565360978245735E-002,6.090765818953514E-003,-9.740980863571167E-001,1.239812076091766E-001,
1.099966666666667E+009,3.685206919908524E-002,-7.338691968470812E-003,-9.789859652519226E-001,1.615105718374252E-001,3.685206919908524E-002,-7.338691968470812E-003,-9.789859652519226E-001,1.615105718374252E-001,
1.108333333333334E+009,2.841673418879509E-002,-1.791636087000370E-002,-9.570060372352600E-001,1.657826006412506E-001,2.841673418879509E-002,-1.791636087000370E-002,-9.570060372352600E-001,1.657826006412506E-001,
1.116700000000000E+009,1.591845601797104E-002,-1.829178631305695E-002,-9.598104357719421E-001,2.103009074926376E-001,1.591845601797104E-002,-1.829178631305695E-002,-9.598104357719421E-001,2.103009074926376E-001,
1.125066666666667E+009,2.245870186015964E-003,-1.842256076633930E-002,-9.648466110229492E-001,2.190904021263123E-001,2.245870186015964E-003,-1.842256076633930E-002,-9.648466110229492E-001,2.190904021263123E-001,
1.133433333333334E+009,-8.304462768137455E-003,-6.282938644289970E-003,-9.666716456413269E-001,2.432174086570740E-001,-8.304462768137455E-003,-6.282938644289970E-003,-9.666716456413269E-001,2.432174086570740E-001,
1.141800000000000E+009,-1.134985126554966E-002,6.028171628713608E-003,-9.404784440994263E-001,2.649084627628326E-001,-1.134985126554966E-002,6.028171628713608E-003,-9.404784440994263E-001,2.649084627628326E-001,
1.150166666666667E+009,-7.444196380674839E-003,2.225317060947418E-002,-9.266633391380310E-001,2.960607409477234E-001,-7.444196380674839E-003,2.225317060947418E-002,-9.266633391380310E-001,2.960607409477234E-001,
1.158533333333334E+009,4.897188860923052E-003,3.147324919700623E-002,-9.306585192680359E-001,3.205822408199310E-001,4.897188860923052E-003,3.147324919700623E-002,-9.306585192680359E-001,3.205822408199310E-001,
1.166900000000000E+009,2.270903065800667E-002,3.273421525955200E-002,-9.236756563186646E-001,3.536796569824219E-001,2.270903065800667E-002,3.273421525955200E-002,-9.236756563186646E-001,3.536796569824219E-001,
1.175266666666667E+009,3.821832686662674E-002,2.310549840331078E-002,-9.142804145812988E-001,3.601013720035553E-001,3.821832686662674E-002,2.310549840331078E-002,-9.142804145812988E-001,3.601013720035553E-001,
1.183633333333334E+009,5.026335269212723E-002,8.354012854397297E-003,-9.057843685150147E-001,3.988137841224670E-001,5.026335269212723E-002,8.354012854397297E-003,-9.057843685150147E-001,3.988137841224670E-001,
1.192000000000000E+009,5.242794007062912E-002,-1.195710524916649E-002,-8.957900404930115E-001,4.066424369812012E-001,5.242794007062912E-002,-1.195710524916649E-002,-8.957900404930115E-001,4.066424369812012E-001,
1.200366666666667E+009,4.323010146617889E-002,-2.787036262452602E-002,-8.881302475929260E-001,4.343612790107727E-001,4.323010146617889E-002,-2.787036262452602E-002,-8.881302475929260E-001,4.343612790107727E-001,
1.208733333333334E+009,2.863537706434727E-002,-3.876156732439995E-002,-8.834024071693420E-001,4.513742923736572E-001,2.863537706434727E-002,-3.876156732439995E-002,-8.834024071693420E-001,4.513742923736572E-001,
1.217100000000000E+009,1.031169202178717E-002,-3.620559722185135E-002,-8.687711358070374E-001,4.717311263084412E-001,1.031169202178717E-002,-3.620559722185135E-002,-8.687711358070374E-001,4.717311263084412E-001,
1.225466666666667E+009,-2.164955250918865E-003,-2.805753983557224E-002,-8.462689518928528E-001,4.991673231124878E-001,-2.164955250918865E-003,-2.805753983557224E-002,-8.462689518928528E-001,4.991673231124878E-001,
1.233833333333334E+009,-1.093724556267262E-002,-1.191370654851198E-002,-8.318493962287903E-001,5.179110169410706E-001,-1.093724556267262E-002,-1.191370654851198E-002,-8.318493962287903E-001,5.179110169410706E-001,
1.242200000000000E+009,-9.844063781201839E-003,6.086388137191534E-003,-8.188080787658691E-001,5.310048460960388E-001,-9.844063781201839E-003,6.086388137191534E-003,-8.188080787658691E-001,5.310048460960388E-001,
1.250566666666667E+009,2.977524884045124E-003,1.807852648198605E-002,-7.950845360755920E-001,5.603097081184387E-001,2.977524884045124E-003,1.807852648198605E-002,-7.950845360755920E-001,5.603097081184387E-001,
1.258933333333334E+009,2.016196213662624E-002,2.163399755954742E-002,-8.065645694732666E-001,5.803917050361633E-001,2.016196213662624E-002,2.163399755954742E-002,-8.065645694732666E-001,5.803917050361633E-001,
1.267300000000000E+009,3.804105520248413E-002,1.291732769459486E-002,-7.876257896423340E-001,5.941492915153503E-001,3.804105520248413E-002,1.291732769459486E-002,-7.876257896423340E-001,5.941492915153503E-001,
1.275666666666667E+009,4.923093318939209E-002,-4.523795098066330E-003,-7.559177875518799E-001,6.196814775466919E-001,4.923093318939209E-002,-4.523795098066330E-003,-7.559177875518799E-001,6.196814775466919E-001,
1.284033333333334E+009,5.029981210827828E-002,-2.612324245274067E-002,-7.499600648880005E-001,6.401813626289368E-001,5.029981210827828E-002,-2.612324245274067E-002,-7.499600648880005E-001,6.401813626289368E-001,
1.292400000000000E+009,4.065564647316933E-002,-4.511186107993126E-002,-7.385722398757935E-001,6.561868190765381E-001,4.065564647316933E-002,-4.511186107993126E-002,-7.385722398757935E-001,6.561868190765381E-001,
1.300766666666667E+009,2.315190248191357E-002,-5.577964335680008E-002,-7.161011695861816E-001,6.731389760971069E-001,2.315190248191357E-002,-5.577964335680008E-002,-7.161011695861816E-001,6.731389760971069E-001,
1.309133333333334E+009,1.587035250850022E-003,-5.562192201614380E-002,-7.049567103385925E-001,6.901488900184631E-001,1.587035250850022E-003,-5.562192201614380E-002,-7.049567103385925E-001,6.901488900184631E-001,
1.317500000000000E+009,-1.366754155606031E-002,-4.494133219122887E-002,-6.821203231811523E-001,7.053409814834595E-001,-1.366754155606031E-002,-4.494133219122887E-002,-6.821203231811523E-001,7.053409814834595E-001,
1.325866666666667E+009,-2.134577743709087E-002,-2.571836113929749E-002,-6.687910556793213E-001,7.206330895423889E-001,-2.134577743709087E-002,-2.571836113929749E-002,-6.687910556793213E-001,7.206330895423889E-001,
1.334233333333334E+009,-1.735753566026688E-002,-7.167366798967123E-003,-6.426648497581482E-001,7.424981594085693E-001,-1.735753566026688E-002,-7.167366798967123E-003,-6.426648497581482E-001,7.424981594085693E-001,
1.342600000000000E+009,-5.470813717693090E-003,4.370554350316525E-003,-6.258650422096252E-001,7.619000673294067E-001,-5.470813717693090E-003,4.370554350316525E-003,-6.258650422096252E-001,7.619000673294067E-001,
1.350966666666667E+009,1.215369626879692E-002,6.174396257847548E-003,-5.981501340866089E-001,7.887881398200989E-001,1.215369626879692E-002,6.174396257847548E-003,-5.981501340866089E-001,7.887881398200989E-001,
1.359333333333334E+009,2.816787734627724E-002,-2.787485020235181E-003,-5.872328281402588E-001,7.917780280113220E-001,2.816787734627724E-002,-2.787485020235181E-003,-5.872328281402588E-001,7.917780280113220E-001,
1.367700000000000E+009,3.312752023339272E-002,-2.242445759475231E-002,-5.704607963562012E-001,8.015805482864380E-001,3.312752023339272E-002,-2.242445759475231E-002,-5.704607963562012E-001,8.015805482864380E-001,
1.376066666666667E+009,3.047586791217327E-002,-4.150718450546265E-002,-5.558173060417175E-001,8.194564580917358E-001,3.047586791217327E-002,-4.150718450546265E-002,-5.558173060417175E-001,8.194564580917358E-001,
1.384433333333334E+009,1.499948650598526E-002,-6.039557233452797E-002,-5.319440364837647E-001,8.427513837814331E-001,1.499948650598526E-002,-6.039557233452797E-002,-5.319440364837647E-001,8.427513837814331E-001,
1.392800000000000E+009,-6.419285666197538E-003,-6.617393344640732E-002,-5.171896815299988E-001,8.377893567085266E-001,-6.419285666197538E-003,-6.617393344640732E-002,-5.171896815299988E-001,8.377893567085266E-001,
1.401166666666667E+009,-2.808887511491776E-002,-6.001389026641846E-002,-4.950349330902100E-001,8.577706217765808E-001,-2.808887511491776E-002,-6.001389026641846E-002,-4.950349330902100E-001,8.577706217765808E-001,
1.409533333333334E+009,-4.392825439572334E-002,-4.518859833478928E-002,-4.650644659996033E-001,8.696893453598023E-001,-4.392825439572334E-002,-4.518859833478928E-002,-4.650644659996033E-001,8.696893453598023E-001,
1.417900000000000E+009,-4.885453358292580E-002,-2.057998068630695E-002,-4.529303908348084E-001,8.645357489585877E-001,-4.885453358292580E-002,-2.057998068630695E-002,-4.529303908348084E-001,8.645357489585877E-001,
1.426266666666667E+009,-4.028833284974098E-002,-1.258678617887199E-003,-4.231221973896027E-001,8.919598460197449E-001,-4.028833284974098E-002,-1.258678617887199E-003,-4.231221973896027E-001,8.919598460197449E-001,
1.434633333333334E+009,-2.352769114077091E-002,1.299625542014837E-002,-3.923354446887970E-001,9.028722047805786E-001,-2.352769114077091E-002,1.299625542014837E-002,-3.923354446887970E-001,9.028722047805786E-001,
1.443000000000000E+009,-3.254038514569402E-003,1.572126150131226E-002,-3.775259554386139E-001,9.090873599052429E-001,-3.254038514569402E-003,1.572126150131226E-002,-3.775259554386139E-001,9.090873599052429E-001,
1.451366666666667E+009,1.420443784445524E-002,6.561060901731253E-003,-3.475145101547241E-001,9.145555496215820E-001,1.420443784445524E-002,6.561060901731253E-003,-3.475145101547241E-001,9.145555496215820E-001,
1.459733333333334E+009,2.421438507735729E-002,-1.364145986735821E-002,-3.303755819797516E-001,9.215238690376282E-001,2.421438507735729E-002,-1.364145986735821E-002,-3.303755819797516E-001,9.215238690376282E-001,
