% Version 1.00
%
%freq[Hz],re:Trc1_S11,im:Trc1_S11,re:Trc2_S21,im:Trc2_S21,re:Trc3_S11,im:Trc3_S11,re:Trc4_S21,im:Trc4_S21,
6.900000000000000E+008,-2.341759577393532E-002,6.037136167287827E-002,-5.025023221969605E-001,-8.481131792068481E-001,-2.341759577393532E-002,6.037136167287827E-002,-5.025023221969605E-001,-8.481131792068481E-001,
6.983666666666666E+008,-1.285260170698166E-002,6.103140860795975E-002,-5.246912837028503E-001,-8.383361697196960E-001,-1.285260170698166E-002,6.103140860795975E-002,-5.246912837028503E-001,-8.383361697196960E-001,
7.067333333333334E+008,-5.810316186398268E-003,5.602791160345078E-002,-5.684468746185303E-001,-7.776549458503723E-001,-5.810316186398268E-003,5.602791160345078E-002,-5.684468746185303E-001,-7.776549458503723E-001,
7.151000000000000E+008,-4.145269282162190E-003,4.848259314894676E-002,-5.891923904418945E-001,-7.913144230842590E-001,-4.145269282162190E-003,4.848259314894676E-002,-5.891923904418945E-001,-7.913144230842590E-001,
7.234666666666666E+008,-6.359390914440155E-003,4.300497472286224E-002,-5.997143387794495E-001,-7.801825404167175E-001,-6.359390914440155E-003,4.300497472286224E-002,-5.997143387794495E-001,-7.801825404167175E-001,
7.318333333333334E+008,-1.229647826403379E-002,4.087331891059876E-002,-6.140491962432861E-001,-7.784760594367981E-001,-1.229647826403379E-002,4.087331891059876E-002,-6.140491962432861E-001,-7.784760594367981E-001,
7.402000000000000E+008,-1.780998706817627E-002,4.125593602657318E-002,-6.602373123168945E-001,-7.594891786575317E-001,-1.780998706817627E-002,4.125593602657318E-002,-6.602373123168945E-001,-7.594891786575317E-001,
7.485666666666666E+008,-2.349831350147724E-002,4.733534157276154E-002,-6.584266424179077E-001,-7.554377317428589E-001,-2.349831350147724E-002,4.733534157276154E-002,-6.584266424179077E-001,-7.554377317428589E-001,
7.569333333333334E+008,-2.331989817321301E-002,5.520021170377731E-002,-6.667709946632385E-001,-7.353565096855164E-001,-2.331989817321301E-002,5.520021170377731E-002,-6.667709946632385E-001,-7.353565096855164E-001,
7.653000000000000E+008,-1.710731908679009E-002,6.273056566715241E-002,-6.839569807052612E-001,-7.149831056594849E-001,-1.710731908679009E-002,6.273056566715241E-002,-6.839569807052612E-001,-7.149831056594849E-001,
7.736666666666666E+008,-9.090553969144821E-003,6.880088150501251E-002,-7.167044878005981E-001,-6.883713006973267E-001,-9.090553969144821E-003,6.880088150501251E-002,-7.167044878005981E-001,-6.883713006973267E-001,
7.820333333333334E+008,1.195953576825559E-003,7.131318747997284E-002,-7.287046909332275E-001,-6.759906411170960E-001,1.195953576825559E-003,7.131318747997284E-002,-7.287046909332275E-001,-6.759906411170960E-001,
7.904000000000000E+008,1.278594136238098E-002,6.973038613796234E-002,-7.327223420143127E-001,-6.549951434135437E-001,1.278594136238098E-002,6.973038613796234E-002,-7.327223420143127E-001,-6.549951434135437E-001,
7.987666666666666E+008,1.851972565054894E-002,6.411941349506378E-002,-7.682234644889832E-001,-6.339101195335388E-001,1.851972565054894E-002,6.411941349506378E-002,-7.682234644889832E-001,-6.339101195335388E-001,
8.071333333333334E+008,2.247437648475170E-002,5.838498845696449E-002,-7.729445099830627E-001,-6.223986148834229E-001,2.247437648475170E-002,5.838498845696449E-002,-7.729445099830627E-001,-6.223986148834229E-001,
8.155000000000000E+008,1.754816807806492E-002,5.195278674364090E-002,-7.950885891914368E-001,-6.009443402290344E-001,1.754816807806492E-002,5.195278674364090E-002,-7.950885891914368E-001,-6.009443402290344E-001,
8.238666666666666E+008,1.476950943470001E-002,4.716477170586586E-002,-7.955450415611267E-001,-5.709416270256043E-001,1.476950943470001E-002,4.716477170586586E-002,-7.955450415611267E-001,-5.709416270256043E-001,
8.322333333333334E+008,8.420537225902081E-003,4.750838503241539E-002,-8.181199431419373E-001,-5.524997711181641E-001,8.420537225902081E-003,4.750838503241539E-002,-8.181199431419373E-001,-5.524997711181641E-001,
8.406000000000000E+008,3.993145655840635E-003,5.074609443545342E-002,-8.294485807418823E-001,-5.384488105773926E-001,3.993145655840635E-003,5.074609443545342E-002,-8.294485807418823E-001,-5.384488105773926E-001,
8.489666666666668E+008,1.729400828480721E-003,5.783354863524437E-002,-8.404727578163147E-001,-5.235204100608826E-001,1.729400828480721E-003,5.783354863524437E-002,-8.404727578163147E-001,-5.235204100608826E-001,
8.573333333333334E+008,4.585081711411476E-003,6.487594544887543E-002,-8.577954769134522E-001,-4.820758998394013E-001,4.585081711411476E-003,6.487594544887543E-002,-8.577954769134522E-001,-4.820758998394013E-001,
8.657000000000000E+008,1.483074296265841E-002,7.106359302997589E-002,-8.745185136795044E-001,-4.620842337608337E-001,1.483074296265841E-002,7.106359302997589E-002,-8.745185136795044E-001,-4.620842337608337E-001,
8.740666666666668E+008,2.371671237051487E-002,7.283328473567963E-002,-8.715155124664307E-001,-4.497333168983460E-001,2.371671237051487E-002,7.283328473567963E-002,-8.715155124664307E-001,-4.497333168983460E-001,
8.824333333333334E+008,3.452397882938385E-002,7.161230593919754E-002,-8.889991044998169E-001,-4.350557327270508E-001,3.452397882938385E-002,7.161230593919754E-002,-8.889991044998169E-001,-4.350557327270508E-001,
8.908000000000000E+008,4.444841668009758E-002,6.580377370119095E-002,-8.885353207588196E-001,-4.031616151332855E-001,4.444841668009758E-002,6.580377370119095E-002,-8.885353207588196E-001,-4.031616151332855E-001,
8.991666666666668E+008,4.877195507287979E-002,5.828547850251198E-002,-9.033839702606201E-001,-3.739860355854034E-001,4.877195507287979E-002,5.828547850251198E-002,-9.033839702606201E-001,-3.739860355854034E-001,
9.075333333333334E+008,5.004515498876572E-002,5.079256743192673E-002,-9.336620569229126E-001,-3.553451895713806E-001,5.004515498876572E-002,5.079256743192673E-002,-9.336620569229126E-001,-3.553451895713806E-001,
9.159000000000000E+008,4.774509742856026E-002,4.718597233295441E-002,-9.396474361419678E-001,-3.271968662738800E-001,4.774509742856026E-002,4.718597233295441E-002,-9.396474361419678E-001,-3.271968662738800E-001,
9.242666666666668E+008,4.300009459257126E-002,4.310650005936623E-002,-9.446300864219666E-001,-3.129447996616364E-001,4.300009459257126E-002,4.310650005936623E-002,-9.446300864219666E-001,-3.129447996616364E-001,
9.326333333333334E+008,3.606339171528816E-002,4.332675412297249E-002,-9.650849699974060E-001,-2.895022928714752E-001,3.606339171528816E-002,4.332675412297249E-002,-9.650849699974060E-001,-2.895022928714752E-001,
9.410000000000000E+008,3.316872939467430E-002,4.686309769749641E-002,-9.591867923736572E-001,-2.562432289123535E-001,3.316872939467430E-002,4.686309769749641E-002,-9.591867923736572E-001,-2.562432289123535E-001,
9.493666666666668E+008,3.307905048131943E-002,5.234998092055321E-002,-9.575205445289612E-001,-2.369726151227951E-001,3.307905048131943E-002,5.234998092055321E-002,-9.575205445289612E-001,-2.369726151227951E-001,
9.577333333333334E+008,3.660762682557106E-002,5.976466462016106E-002,-9.735345840454102E-001,-2.135057151317596E-001,3.660762682557106E-002,5.976466462016106E-002,-9.735345840454102E-001,-2.135057151317596E-001,
9.661000000000000E+008,4.664278402924538E-002,6.496871262788773E-002,-9.702785611152649E-001,-1.892099529504776E-001,4.664278402924538E-002,6.496871262788773E-002,-9.702785611152649E-001,-1.892099529504776E-001,
9.744666666666668E+008,5.528112500905991E-002,6.369558721780777E-002,-9.755216836929321E-001,-1.650151312351227E-001,5.528112500905991E-002,6.369558721780777E-002,-9.755216836929321E-001,-1.650151312351227E-001,
9.828333333333334E+008,6.964678317308426E-002,5.938714742660523E-002,-9.784633517265320E-001,-1.448500305414200E-001,6.964678317308426E-002,5.938714742660523E-002,-9.784633517265320E-001,-1.448500305414200E-001,
9.912000000000000E+008,7.756301015615463E-002,5.148830264806747E-002,-9.770624041557312E-001,-1.169121041893959E-001,7.756301015615463E-002,5.148830264806747E-002,-9.770624041557312E-001,-1.169121041893959E-001,
9.995666666666668E+008,8.372732996940613E-002,4.111057892441750E-002,-9.919654726982117E-001,-8.013141900300980E-002,8.372732996940613E-002,4.111057892441750E-002,-9.919654726982117E-001,-8.013141900300980E-002,
1.007933333333333E+009,8.402672410011292E-002,3.071109205484390E-002,-9.902353286743164E-001,-6.470606476068497E-002,8.402672410011292E-002,3.071109205484390E-002,-9.902353286743164E-001,-6.470606476068497E-002,
1.016300000000000E+009,7.807923853397369E-002,2.364883385598660E-002,-9.925667047500610E-001,-3.958061337471008E-002,7.807923853397369E-002,2.364883385598660E-002,-9.925667047500610E-001,-3.958061337471008E-002,
1.024666666666667E+009,7.104682922363281E-002,1.638956740498543E-002,-9.918332099914551E-001,-6.013731006532908E-003,7.104682922363281E-002,1.638956740498543E-002,-9.918332099914551E-001,-6.013731006532908E-003,
1.033033333333333E+009,6.427340954542160E-002,1.819542236626148E-002,-9.915696382522583E-001,1.215113326907158E-002,6.427340954542160E-002,1.819542236626148E-002,-9.915696382522583E-001,1.215113326907158E-002,
1.041400000000000E+009,5.838042497634888E-002,2.295319736003876E-002,-9.783076643943787E-001,5.085898563265801E-002,5.838042497634888E-002,2.295319736003876E-002,-9.783076643943787E-001,5.085898563265801E-002,
1.049766666666667E+009,5.819799378514290E-002,2.957624942064285E-002,-9.895758628845215E-001,7.179046422243118E-002,5.819799378514290E-002,2.957624942064285E-002,-9.895758628845215E-001,7.179046422243118E-002,
1.058133333333333E+009,6.421478837728500E-002,3.438739478588104E-002,-9.834061861038208E-001,9.004513919353485E-002,6.421478837728500E-002,3.438739478588104E-002,-9.834061861038208E-001,9.004513919353485E-002,
1.066500000000000E+009,7.553940266370773E-002,3.627995029091835E-002,-9.900916814804077E-001,1.286420673131943E-001,7.553940266370773E-002,3.627995029091835E-002,-9.900916814804077E-001,1.286420673131943E-001,
1.074866666666667E+009,8.606853336095810E-002,3.289175778627396E-002,-9.722915887832642E-001,1.460717171430588E-001,8.606853336095810E-002,3.289175778627396E-002,-9.722915887832642E-001,1.460717171430588E-001,
1.083233333333334E+009,9.698882699012756E-002,1.950799860060215E-002,-9.691650271415710E-001,1.684885621070862E-001,9.698882699012756E-002,1.950799860060215E-002,-9.691650271415710E-001,1.684885621070862E-001,
1.091600000000000E+009,1.029897183179855E-001,8.067728020250797E-003,-9.599182009696960E-001,1.887530535459518E-001,1.029897183179855E-001,8.067728020250797E-003,-9.599182009696960E-001,1.887530535459518E-001,
1.099966666666667E+009,1.040859743952751E-001,-8.139649406075478E-003,-9.633482694625855E-001,2.279010713100433E-001,1.040859743952751E-001,-8.139649406075478E-003,-9.633482694625855E-001,2.279010713100433E-001,
1.108333333333334E+009,9.450466185808182E-002,-1.968503184616566E-002,-9.416595697402954E-001,2.310627549886704E-001,9.450466185808182E-002,-1.968503184616566E-002,-9.416595697402954E-001,2.310627549886704E-001,
1.116700000000000E+009,7.988932728767395E-002,-2.117039263248444E-002,-9.404702186584473E-001,2.751131951808929E-001,7.988932728767395E-002,-2.117039263248444E-002,-9.404702186584473E-001,2.751131951808929E-001,
1.125066666666667E+009,6.754839420318604E-002,-2.150749973952770E-002,-9.461379051208496E-001,2.848180830478668E-001,6.754839420318604E-002,-2.150749973952770E-002,-9.461379051208496E-001,2.848180830478668E-001,
1.133433333333334E+009,5.813306570053101E-002,-1.067126356065273E-002,-9.464205503463745E-001,3.100509345531464E-001,5.813306570053101E-002,-1.067126356065273E-002,-9.464205503463745E-001,3.100509345531464E-001,
1.141800000000000E+009,5.683147907257080E-002,-4.801324394065887E-004,-9.187057614326477E-001,3.314799368381500E-001,5.683147907257080E-002,-4.801324394065887E-004,-9.187057614326477E-001,3.314799368381500E-001,
1.150166666666667E+009,6.344491988420487E-002,1.219589728862047E-002,-9.002262949943543E-001,3.621125221252441E-001,6.344491988420487E-002,1.219589728862047E-002,-9.002262949943543E-001,3.621125221252441E-001,
1.158533333333334E+009,7.734031230211258E-002,1.739221438765526E-002,-9.032305479049683E-001,3.872321248054504E-001,7.734031230211258E-002,1.739221438765526E-002,-9.032305479049683E-001,3.872321248054504E-001,
1.166900000000000E+009,9.613180905580521E-002,1.361398585140705E-002,-8.927732110023499E-001,4.215570092201233E-001,9.613180905580521E-002,1.361398585140705E-002,-8.927732110023499E-001,4.215570092201233E-001,
1.175266666666667E+009,1.100165545940399E-001,-8.859783411026001E-004,-8.813221454620361E-001,4.276931285858154E-001,1.100165545940399E-001,-8.859783411026001E-004,-8.813221454620361E-001,4.276931285858154E-001,
1.183633333333334E+009,1.200240701436997E-001,-1.961704157292843E-002,-8.684983253479004E-001,4.628939926624298E-001,1.200240701436997E-001,-1.961704157292843E-002,-8.684983253479004E-001,4.628939926624298E-001,
1.192000000000000E+009,1.193509772419930E-001,-4.243230074644089E-002,-8.581586480140686E-001,4.706435799598694E-001,1.193509772419930E-001,-4.243230074644089E-002,-8.581586480140686E-001,4.706435799598694E-001,
1.200366666666667E+009,1.072219088673592E-001,-5.918324366211891E-002,-8.490124344825745E-001,4.972845017910004E-001,1.072219088673592E-001,-5.918324366211891E-002,-8.490124344825745E-001,4.972845017910004E-001,
1.208733333333334E+009,9.071839600801468E-002,-6.990720331668854E-002,-8.431493639945984E-001,5.143452882766724E-001,9.071839600801468E-002,-6.990720331668854E-002,-8.431493639945984E-001,5.143452882766724E-001,
1.217100000000000E+009,7.131776958703995E-002,-6.772459298372269E-002,-8.288321495056152E-001,5.337644815444946E-001,7.131776958703995E-002,-6.772459298372269E-002,-8.288321495056152E-001,5.337644815444946E-001,
1.225466666666667E+009,5.861692875623703E-002,-6.042731553316116E-002,-8.042869567871094E-001,5.611347556114197E-001,5.861692875623703E-002,-6.042731553316116E-002,-8.042869567871094E-001,5.611347556114197E-001,
1.233833333333334E+009,5.133004486560822E-002,-4.508403316140175E-002,-7.885727882385254E-001,5.803238153457642E-001,5.133004486560822E-002,-4.508403316140175E-002,-7.885727882385254E-001,5.803238153457642E-001,
1.242200000000000E+009,5.450763180851936E-002,-2.991704083979130E-002,-7.740266323089600E-001,5.936313867568970E-001,5.450763180851936E-002,-2.991704083979130E-002,-7.740266323089600E-001,5.936313867568970E-001,
1.250566666666667E+009,6.822904199361801E-002,-2.266905084252358E-002,-7.463496327400208E-001,6.220836043357849E-001,6.822904199361801E-002,-2.266905084252358E-002,-7.463496327400208E-001,6.220836043357849E-001,
1.258933333333334E+009,8.437900990247726E-002,-2.499198354780674E-002,-7.550013661384583E-001,6.428269147872925E-001,8.437900990247726E-002,-2.499198354780674E-002,-7.550013661384583E-001,6.428269147872925E-001,
1.267300000000000E+009,9.966243803501129E-002,-3.937436640262604E-002,-7.324962615966797E-001,6.547574996948242E-001,9.966243803501129E-002,-3.937436640262604E-002,-7.324962615966797E-001,6.547574996948242E-001,
1.275666666666667E+009,1.076123937964439E-001,-6.014132872223854E-002,-6.984553337097168E-001,6.767796874046326E-001,1.076123937964439E-001,-6.014132872223854E-002,-6.984553337097168E-001,6.767796874046326E-001,
1.284033333333334E+009,1.042176857590675E-001,-8.425867557525635E-002,-6.912448406219482E-001,6.956673860549927E-001,1.042176857590675E-001,-8.425867557525635E-002,-6.912448406219482E-001,6.956673860549927E-001,
1.292400000000000E+009,9.032713621854782E-002,-1.038419529795647E-001,-6.783079504966736E-001,7.094133496284485E-001,9.032713621854782E-002,-1.038419529795647E-001,-6.783079504966736E-001,7.094133496284485E-001,
1.300766666666667E+009,7.006570696830750E-002,-1.127144023776054E-001,-6.559451222419739E-001,7.240964174270630E-001,7.006570696830750E-002,-1.127144023776054E-001,-6.559451222419739E-001,7.240964174270630E-001,
1.309133333333334E+009,4.628895223140717E-002,-1.116459816694260E-001,-6.454491019248962E-001,7.403087019920349E-001,4.628895223140717E-002,-1.116459816694260E-001,-6.454491019248962E-001,7.403087019920349E-001,
1.317500000000000E+009,3.179024159908295E-002,-1.010894700884819E-001,-6.214585900306702E-001,7.563291788101196E-001,3.179024159908295E-002,-1.010894700884819E-001,-6.214585900306702E-001,7.563291788101196E-001,
1.325866666666667E+009,2.433666773140431E-002,-8.246049284934998E-002,-6.069661378860474E-001,7.712103128433228E-001,2.433666773140431E-002,-8.246049284934998E-002,-6.069661378860474E-001,7.712103128433228E-001,
1.334233333333334E+009,2.911720797419548E-002,-6.646565347909927E-002,-5.775291919708252E-001,7.918823361396790E-001,2.911720797419548E-002,-6.646565347909927E-002,-5.775291919708252E-001,7.918823361396790E-001,
1.342600000000000E+009,4.046678543090820E-002,-5.945047363638878E-002,-5.576745867729187E-001,8.115155696868897E-001,4.046678543090820E-002,-5.945047363638878E-002,-5.576745867729187E-001,8.115155696868897E-001,
1.350966666666667E+009,5.629391968250275E-002,-6.295379251241684E-002,-5.273963212966919E-001,8.353599309921265E-001,5.629391968250275E-002,-6.295379251241684E-002,-5.273963212966919E-001,8.353599309921265E-001,
1.359333333333334E+009,6.958688795566559E-002,-7.702462375164032E-002,-5.142835378646851E-001,8.370905518531799E-001,6.958688795566559E-002,-7.702462375164032E-002,-5.142835378646851E-001,8.370905518531799E-001,
1.367700000000000E+009,6.845784932374954E-002,-9.907972067594528E-002,-4.958744943141937E-001,8.447004556655884E-001,6.845784932374954E-002,-9.907972067594528E-002,-4.958744943141937E-001,8.447004556655884E-001,
1.376066666666667E+009,6.031661853194237E-002,-1.191341429948807E-001,-4.793753921985626E-001,8.592615723609924E-001,6.031661853194237E-002,-1.191341429948807E-001,-4.793753921985626E-001,8.592615723609924E-001,
1.384433333333334E+009,4.022697731852531E-002,-1.368398517370224E-001,-4.550696015357971E-001,8.785740733146668E-001,4.022697731852531E-002,-1.368398517370224E-001,-4.550696015357971E-001,8.785740733146668E-001,
1.392800000000000E+009,1.590766757726669E-002,-1.403117626905441E-001,-4.413094222545624E-001,8.725187182426453E-001,1.590766757726669E-002,-1.403117626905441E-001,-4.413094222545624E-001,8.725187182426453E-001,
1.401166666666667E+009,-6.500282324850559E-003,-1.322830468416214E-001,-4.190064072608948E-001,8.914334177970886E-001,-6.500282324850559E-003,-1.322830468416214E-001,-4.190064072608948E-001,8.914334177970886E-001,
1.409533333333334E+009,-2.202278003096581E-002,-1.154095456004143E-001,-3.893016874790192E-001,9.027209281921387E-001,-2.202278003096581E-002,-1.154095456004143E-001,-3.893016874790192E-001,9.027209281921387E-001,
1.417900000000000E+009,-2.616088837385178E-002,-9.137597680091858E-002,-3.774728775024414E-001,8.997150659561157E-001,-2.616088837385178E-002,-9.137597680091858E-002,-3.774728775024414E-001,8.997150659561157E-001,
1.426266666666667E+009,-1.752043887972832E-002,-7.508909702301025E-002,-3.441263139247894E-001,9.248262643814087E-001,-1.752043887972832E-002,-7.508909702301025E-002,-3.441263139247894E-001,9.248262643814087E-001,
1.434633333333334E+009,-1.133059966377914E-003,-6.500018388032913E-002,-3.100504875183106E-001,9.341886639595032E-001,-1.133059966377914E-003,-6.500018388032913E-002,-3.100504875183106E-001,9.341886639595032E-001,
1.443000000000000E+009,1.555070001631975E-002,-6.730791181325913E-002,-2.922621965408325E-001,9.395340681076050E-001,1.555070001631975E-002,-6.730791181325913E-002,-2.922621965408325E-001,9.395340681076050E-001,
1.451366666666667E+009,2.818972058594227E-002,-8.017682284116745E-002,-2.592169940471649E-001,9.415057301521301E-001,2.818972058594227E-002,-8.017682284116745E-002,-2.592169940471649E-001,9.415057301521301E-001,
1.459733333333334E+009,3.181103616952896E-002,-1.030261367559433E-001,-2.414013594388962E-001,9.431444406509399E-001,3.181103616952896E-002,-1.030261367559433E-001,-2.414013594388962E-001,9.431444406509399E-001,
