% Version 1.00
%
%freq[Hz],re:Trc1_S11,im:Trc1_S11,re:Trc2_S21,im:Trc2_S21,re:Trc3_S11,im:Trc3_S11,re:Trc4_S21,im:Trc4_S21,
6.900000000000000E+008,-1.668244227766991E-002,1.580130681395531E-002,-4.669395089149475E-001,-8.705614805221558E-001,-1.668244227766991E-002,1.580130681395531E-002,-4.669395089149475E-001,-8.705614805221558E-001,
6.983666666666666E+008,-7.204063236713409E-003,1.648679748177528E-002,-4.908809363842011E-001,-8.635978102684021E-001,-7.204063236713409E-003,1.648679748177528E-002,-4.908809363842011E-001,-8.635978102684021E-001,
7.067333333333334E+008,-7.449456606991589E-004,1.143483817577362E-002,-5.371195673942566E-001,-8.028496503829956E-001,-7.449456606991589E-004,1.143483817577362E-002,-5.371195673942566E-001,-8.028496503829956E-001,
7.151000000000000E+008,-3.969830286223441E-004,3.355523571372032E-003,-5.544692873954773E-001,-8.169574141502380E-001,-3.969830286223441E-004,3.355523571372032E-003,-5.544692873954773E-001,-8.169574141502380E-001,
7.234666666666666E+008,-3.751509590074420E-003,-2.492923522368074E-003,-5.669179558753967E-001,-8.058468699455261E-001,-3.751509590074420E-003,-2.492923522368074E-003,-5.669179558753967E-001,-8.058468699455261E-001,
7.318333333333334E+008,-1.102366857230663E-002,-5.744578782469034E-003,-5.807569026947022E-001,-8.060251474380493E-001,-1.102366857230663E-002,-5.744578782469034E-003,-5.807569026947022E-001,-8.060251474380493E-001,
7.402000000000000E+008,-1.811016350984573E-002,-6.029053591191769E-003,-6.263841986656189E-001,-7.908629179000855E-001,-1.811016350984573E-002,-6.029053591191769E-003,-6.263841986656189E-001,-7.908629179000855E-001,
7.485666666666666E+008,-2.593451924622059E-002,-9.193810401484370E-004,-6.248165965080261E-001,-7.875089645385742E-001,-2.593451924622059E-002,-9.193810401484370E-004,-6.248165965080261E-001,-7.875089645385742E-001,
7.569333333333334E+008,-2.846410311758518E-002,6.157192867249250E-003,-6.334530711174011E-001,-7.664273381233215E-001,-2.846410311758518E-002,6.157192867249250E-003,-6.334530711174011E-001,-7.664273381233215E-001,
7.653000000000000E+008,-2.492531761527062E-002,1.325394399464130E-002,-6.518603563308716E-001,-7.477236986160278E-001,-2.492531761527062E-002,1.325394399464130E-002,-6.518603563308716E-001,-7.477236986160278E-001,
7.736666666666666E+008,-1.861113309860230E-002,1.930353976786137E-002,-6.860024929046631E-001,-7.233299612998962E-001,-1.861113309860230E-002,1.930353976786137E-002,-6.860024929046631E-001,-7.233299612998962E-001,
7.820333333333334E+008,-1.044030208140612E-002,2.197296917438507E-002,-6.985103487968445E-001,-7.117936015129089E-001,-1.044030208140612E-002,2.197296917438507E-002,-6.985103487968445E-001,-7.117936015129089E-001,
7.904000000000000E+008,-6.502281758002937E-004,2.077441476285458E-002,-7.033070921897888E-001,-6.900910735130310E-001,-6.502281758002937E-004,2.077441476285458E-002,-7.033070921897888E-001,-6.900910735130310E-001,
7.987666666666666E+008,3.868954256176949E-003,1.552828680723906E-002,-7.381135821342468E-001,-6.720071434974670E-001,3.868954256176949E-003,1.552828680723906E-002,-7.381135821342468E-001,-6.720071434974670E-001,
8.071333333333334E+008,6.689128931611776E-003,1.024193689227104E-002,-7.444854974746704E-001,-6.605194211006165E-001,6.689128931611776E-003,1.024193689227104E-002,-7.444854974746704E-001,-6.605194211006165E-001,
8.155000000000000E+008,1.117173349484801E-003,3.577329916879535E-003,-7.672421932220459E-001,-6.403083801269531E-001,1.117173349484801E-003,3.577329916879535E-003,-7.672421932220459E-001,-6.403083801269531E-001,
8.238666666666666E+008,-3.547029104083777E-003,-7.818141602911055E-004,-7.689703702926636E-001,-6.104416251182556E-001,-3.547029104083777E-003,-7.818141602911055E-004,-7.689703702926636E-001,-6.104416251182556E-001,
8.322333333333334E+008,-1.143102440983057E-002,-8.586836047470570E-004,-7.917588949203491E-001,-5.928687453269959E-001,-1.143102440983057E-002,-8.586836047470570E-004,-7.917588949203491E-001,-5.928687453269959E-001,
8.406000000000000E+008,-1.839613541960716E-002,2.628481946885586E-003,-8.032204508781433E-001,-5.814052224159241E-001,-1.839613541960716E-002,2.628481946885586E-003,-8.032204508781433E-001,-5.814052224159241E-001,
8.489666666666668E+008,-2.300742827355862E-002,8.839701302349567E-003,-8.131945729255676E-001,-5.671891570091248E-001,-2.300742827355862E-002,8.839701302349567E-003,-8.131945729255676E-001,-5.671891570091248E-001,
8.573333333333334E+008,-2.237469144165516E-002,1.677899621427059E-002,-8.330790400505066E-001,-5.281453132629395E-001,-2.237469144165516E-002,1.677899621427059E-002,-8.330790400505066E-001,-5.281453132629395E-001,
8.657000000000000E+008,-1.607182994484901E-002,2.349486947059631E-002,-8.508839607238770E-001,-5.092077255249023E-001,-1.607182994484901E-002,2.349486947059631E-002,-8.508839607238770E-001,-5.092077255249023E-001,
8.740666666666668E+008,-9.260575287044048E-003,2.657293900847435E-002,-8.493757843971252E-001,-4.975782930850983E-001,-9.260575287044048E-003,2.657293900847435E-002,-8.493757843971252E-001,-4.975782930850983E-001,
8.824333333333334E+008,-9.686037810752168E-005,2.644411288201809E-002,-8.678234815597534E-001,-4.824555516242981E-001,-9.686037810752168E-005,2.644411288201809E-002,-8.678234815597534E-001,-4.824555516242981E-001,
8.908000000000000E+008,8.462847210466862E-003,2.221631072461605E-002,-8.695417642593384E-001,-4.509768784046173E-001,8.462847210466862E-003,2.221631072461605E-002,-8.695417642593384E-001,-4.509768784046173E-001,
8.991666666666668E+008,1.201670151203871E-002,1.585778407752514E-002,-8.856744170188904E-001,-4.244928061962128E-001,1.201670151203871E-002,1.585778407752514E-002,-8.856744170188904E-001,-4.244928061962128E-001,
9.075333333333334E+008,1.166146807372570E-002,9.068157523870468E-003,-9.157350659370422E-001,-4.087994396686554E-001,1.166146807372570E-002,9.068157523870468E-003,-9.157350659370422E-001,-4.087994396686554E-001,
9.159000000000000E+008,8.204717189073563E-003,6.558546796441078E-003,-9.219263195991516E-001,-3.798140585422516E-001,8.204717189073563E-003,6.558546796441078E-003,-9.219263195991516E-001,-3.798140585422516E-001,
9.242666666666668E+008,2.427155384793878E-003,3.019088413566351E-003,-9.289268255233765E-001,-3.659932911396027E-001,2.427155384793878E-003,3.019088413566351E-003,-9.289268255233765E-001,-3.659932911396027E-001,
9.326333333333334E+008,-6.093548145145178E-003,3.757019992917776E-003,-9.506602883338928E-001,-3.439379334449768E-001,-6.093548145145178E-003,3.757019992917776E-003,-9.506602883338928E-001,-3.439379334449768E-001,
9.410000000000000E+008,-1.112701278179884E-002,8.003781549632549E-003,-9.448665380477905E-001,-3.108886778354645E-001,-1.112701278179884E-002,8.003781549632549E-003,-9.448665380477905E-001,-3.108886778354645E-001,
9.493666666666668E+008,-1.393606979399920E-002,1.450623385608196E-002,-9.437723159790039E-001,-2.934313416481018E-001,-1.393606979399920E-002,1.450623385608196E-002,-9.437723159790039E-001,-2.934313416481018E-001,
9.577333333333334E+008,-1.296664867550135E-002,2.326102927327156E-002,-9.604252576828003E-001,-2.713414430618286E-001,-1.296664867550135E-002,2.326102927327156E-002,-9.604252576828003E-001,-2.713414430618286E-001,
9.661000000000000E+008,-6.371928378939629E-003,3.052888624370098E-002,-9.610326290130615E-001,-2.474376112222672E-001,-6.371928378939629E-003,3.052888624370098E-002,-9.610326290130615E-001,-2.474376112222672E-001,
9.744666666666668E+008,1.084900693967938E-003,3.212480247020721E-002,-9.683090448379517E-001,-2.242138534784317E-001,1.084900693967938E-003,3.212480247020721E-002,-9.683090448379517E-001,-2.242138534784317E-001,
9.828333333333334E+008,1.370407175272703E-002,3.020880743861198E-002,-9.716594815254211E-001,-2.032446563243866E-001,1.370407175272703E-002,3.020880743861198E-002,-9.716594815254211E-001,-2.032446563243866E-001,
9.912000000000000E+008,2.092747017741203E-002,2.452018298208714E-002,-9.733280539512634E-001,-1.757973134517670E-001,2.092747017741203E-002,2.452018298208714E-002,-9.733280539512634E-001,-1.757973134517670E-001,
9.995666666666668E+008,2.712043002247810E-002,1.655075140297413E-002,-9.899075031280518E-001,-1.400195658206940E-001,2.712043002247810E-002,1.655075140297413E-002,-9.899075031280518E-001,-1.400195658206940E-001,
1.007933333333333E+009,2.707473747432232E-002,7.639585062861443E-003,-9.889674186706543E-001,-1.249625980854034E-001,2.707473747432232E-002,7.639585062861443E-003,-9.889674186706543E-001,-1.249625980854034E-001,
1.016300000000000E+009,2.108081430196762E-002,1.885214587673545E-003,-9.911927580833435E-001,-9.833535552024841E-002,2.108081430196762E-002,1.885214587673545E-003,-9.911927580833435E-001,-9.833535552024841E-002,
1.024666666666667E+009,1.334687694907188E-002,-4.514419473707676E-003,-9.938749670982361E-001,-6.656860560178757E-002,1.334687694907188E-002,-4.514419473707676E-003,-9.938749670982361E-001,-6.656860560178757E-002,
1.033033333333333E+009,5.517129786312580E-003,-1.600118470378220E-003,-9.932816624641419E-001,-4.871205613017082E-002,5.517129786312580E-003,-1.600118470378220E-003,-9.932816624641419E-001,-4.871205613017082E-002,
1.041400000000000E+009,-1.848903135396540E-003,4.475179594010115E-003,-9.808939099311829E-001,-1.029497385025024E-002,-1.848903135396540E-003,4.475179594010115E-003,-9.808939099311829E-001,-1.029497385025024E-002,
1.049766666666667E+009,-4.610606469213963E-003,1.299467310309410E-002,-9.954638481140137E-001,7.867951877415180E-003,-4.610606469213963E-003,1.299467310309410E-002,-9.954638481140137E-001,7.867951877415180E-003,
1.058133333333333E+009,-7.453476428054273E-004,2.064775675535202E-002,-9.906401634216309E-001,2.625716291368008E-002,-7.453476428054273E-004,2.064775675535202E-002,-9.906401634216309E-001,2.625716291368008E-002,
1.066500000000000E+009,8.343570865690708E-003,2.626103535294533E-002,-1.000476002693176E+000,6.394363194704056E-002,8.343570865690708E-003,2.626103535294533E-002,-1.000476002693176E+000,6.394363194704056E-002,
1.074866666666667E+009,1.851228624582291E-002,2.545478194952011E-002,-9.839629530906677E-001,8.325181901454926E-002,1.851228624582291E-002,2.545478194952011E-002,-9.839629530906677E-001,8.325181901454926E-002,
1.083233333333334E+009,2.931252680718899E-002,1.595336385071278E-002,-9.828767776489258E-001,1.052218303084374E-001,2.931252680718899E-002,1.595336385071278E-002,-9.828767776489258E-001,1.052218303084374E-001,
1.091600000000000E+009,3.599676489830017E-002,6.431569810956717E-003,-9.760686159133911E-001,1.266675889492035E-001,3.599676489830017E-002,6.431569810956717E-003,-9.760686159133911E-001,1.266675889492035E-001,
1.099966666666667E+009,3.725329786539078E-002,-6.991444621235132E-003,-9.806479215621948E-001,1.643969714641571E-001,3.725329786539078E-002,-6.991444621235132E-003,-9.806479215621948E-001,1.643969714641571E-001,
1.108333333333334E+009,2.869495004415512E-002,-1.764031685888767E-002,-9.588312506675720E-001,1.687304824590683E-001,2.869495004415512E-002,-1.764031685888767E-002,-9.588312506675720E-001,1.687304824590683E-001,
1.116700000000000E+009,1.601966656744480E-002,-1.803218200802803E-002,-9.611271023750305E-001,2.135586291551590E-001,1.601966656744480E-002,-1.803218200802803E-002,-9.611271023750305E-001,2.135586291551590E-001,
1.125066666666667E+009,2.069384558126330E-003,-1.805587857961655E-002,-9.663993716239929E-001,2.216822654008865E-001,2.069384558126330E-003,-1.805587857961655E-002,-9.663993716239929E-001,2.216822654008865E-001,
1.133433333333334E+009,-8.619120344519615E-003,-5.875446833670139E-003,-9.679742455482483E-001,2.460387200117111E-001,-8.619120344519615E-003,-5.875446833670139E-003,-9.679742455482483E-001,2.460387200117111E-001,
1.141800000000000E+009,-1.165950205177069E-002,6.616975646466017E-003,-9.416615366935730E-001,2.675595283508301E-001,-1.165950205177069E-002,6.616975646466017E-003,-9.416615366935730E-001,2.675595283508301E-001,
1.150166666666667E+009,-7.583698257803917E-003,2.280693501234055E-002,-9.285067319869995E-001,2.989003062248230E-001,-7.583698257803917E-003,2.280693501234055E-002,-9.285067319869995E-001,2.989003062248230E-001,
1.158533333333334E+009,4.886131267994642E-003,3.219853714108467E-002,-9.319613575935364E-001,3.231115043163300E-001,4.886131267994642E-003,3.219853714108467E-002,-9.319613575935364E-001,3.231115043163300E-001,
1.166900000000000E+009,2.293933741748333E-002,3.336574509739876E-002,-9.251375794410706E-001,3.562646508216858E-001,2.293933741748333E-002,3.336574509739876E-002,-9.251375794410706E-001,3.562646508216858E-001,
1.175266666666667E+009,3.878466039896011E-002,2.364133670926094E-002,-9.160335063934326E-001,3.623649775981903E-001,3.878466039896011E-002,2.364133670926094E-002,-9.160335063934326E-001,3.623649775981903E-001,
1.183633333333334E+009,5.106629803776741E-002,8.624467067420483E-003,-9.068788290023804E-001,4.017242789268494E-001,5.106629803776741E-002,8.624467067420483E-003,-9.068788290023804E-001,4.017242789268494E-001,
1.192000000000000E+009,5.323524773120880E-002,-1.182953640818596E-002,-8.964599370956421E-001,4.101417958736420E-001,5.323524773120880E-002,-1.182953640818596E-002,-8.964599370956421E-001,4.101417958736420E-001,
1.200366666666667E+009,4.383689165115356E-002,-2.781308442354202E-002,-8.890473842620850E-001,4.372237920761108E-001,4.383689165115356E-002,-2.781308442354202E-002,-8.890473842620850E-001,4.372237920761108E-001,
1.208733333333334E+009,2.899674512445927E-002,-3.874403983354569E-002,-8.843649029731751E-001,4.545989930629730E-001,2.899674512445927E-002,-3.874403983354569E-002,-8.843649029731751E-001,4.545989930629730E-001,
1.217100000000000E+009,1.047263294458389E-002,-3.592556715011597E-002,-8.695148825645447E-001,4.749083220958710E-001,1.047263294458389E-002,-3.592556715011597E-002,-8.695148825645447E-001,4.749083220958710E-001,
1.225466666666667E+009,-2.130499575287104E-003,-2.757107652723789E-002,-8.471494317054749E-001,5.031739473342896E-001,-2.130499575287104E-003,-2.757107652723789E-002,-8.471494317054749E-001,5.031739473342896E-001,
1.233833333333334E+009,-1.095083542168140E-002,-1.127172354608774E-002,-8.329291343688965E-001,5.212454795837402E-001,-1.095083542168140E-002,-1.127172354608774E-002,-8.329291343688965E-001,5.212454795837402E-001,
1.242200000000000E+009,-9.790732525289059E-003,6.869112141430378E-003,-8.193197846412659E-001,5.351142287254334E-001,-9.790732525289059E-003,6.869112141430378E-003,-8.193197846412659E-001,5.351142287254334E-001,
1.250566666666667E+009,3.289631567895412E-003,1.874005980789661E-002,-7.957955002784729E-001,5.640525221824646E-001,3.289631567895412E-003,1.874005980789661E-002,-7.957955002784729E-001,5.640525221824646E-001,
1.258933333333334E+009,2.070526406168938E-002,2.226278372108936E-002,-8.068860173225403E-001,5.837736129760742E-001,2.070526406168938E-002,2.226278372108936E-002,-8.068860173225403E-001,5.837736129760742E-001,
1.267300000000000E+009,3.878914192318916E-002,1.310416311025620E-002,-7.877565622329712E-001,5.973967909812927E-001,3.878914192318916E-002,1.310416311025620E-002,-7.877565622329712E-001,5.973967909812927E-001,
1.275666666666667E+009,5.005857720971108E-002,-4.525026306509972E-003,-7.559152841567993E-001,6.228905320167542E-001,5.005857720971108E-002,-4.525026306509972E-003,-7.559152841567993E-001,6.228905320167542E-001,
1.284033333333334E+009,5.109303072094917E-002,-2.641231566667557E-002,-7.498503327369690E-001,6.436930894851685E-001,5.109303072094917E-002,-2.641231566667557E-002,-7.498503327369690E-001,6.436930894851685E-001,
1.292400000000000E+009,4.130048304796219E-002,-4.538184404373169E-002,-7.387406229972839E-001,6.591352224349976E-001,4.130048304796219E-002,-4.538184404373169E-002,-7.387406229972839E-001,6.591352224349976E-001,
1.300766666666667E+009,2.355985529720783E-002,-5.587743222713471E-002,-7.158927917480469E-001,6.767715215682983E-001,2.355985529720783E-002,-5.587743222713471E-002,-7.158927917480469E-001,6.767715215682983E-001,
1.309133333333334E+009,1.771838753484190E-003,-5.555747449398041E-002,-7.042921781539917E-001,6.933075189590454E-001,1.771838753484190E-003,-5.555747449398041E-002,-7.042921781539917E-001,6.933075189590454E-001,
1.317500000000000E+009,-1.353173796087503E-002,-4.445583373308182E-002,-6.817793250083923E-001,7.091594338417053E-001,-1.353173796087503E-002,-4.445583373308182E-002,-6.817793250083923E-001,7.091594338417053E-001,
1.325866666666667E+009,-2.101695910096169E-002,-2.507132664322853E-002,-6.679728031158447E-001,7.235117554664612E-001,-2.101695910096169E-002,-2.507132664322853E-002,-6.679728031158447E-001,7.235117554664612E-001,
1.334233333333334E+009,-1.690295897424221E-002,-6.476472597569227E-003,-6.426096558570862E-001,7.460965514183044E-001,-1.690295897424221E-002,-6.476472597569227E-003,-6.426096558570862E-001,7.460965514183044E-001,
1.342600000000000E+009,-4.769094288349152E-003,4.871393088251352E-003,-6.257849335670471E-001,7.658381462097168E-001,-4.769094288349152E-003,4.871393088251352E-003,-6.257849335670471E-001,7.658381462097168E-001,
1.350966666666667E+009,1.298489514738321E-002,6.406921427696943E-003,-5.979322195053101E-001,7.923844456672669E-001,1.298489514738321E-002,6.406921427696943E-003,-5.979322195053101E-001,7.923844456672669E-001,
1.359333333333334E+009,2.908635325729847E-002,-2.855555620044470E-003,-5.871250033378601E-001,7.943884730339050E-001,2.908635325729847E-002,-2.855555620044470E-003,-5.871250033378601E-001,7.943884730339050E-001,
1.367700000000000E+009,3.387027233839035E-002,-2.288613282144070E-002,-5.696848630905151E-001,8.051452040672302E-001,3.387027233839035E-002,-2.288613282144070E-002,-5.696848630905151E-001,8.051452040672302E-001,
1.376066666666667E+009,3.100976534187794E-002,-4.217223823070526E-002,-5.551465749740601E-001,8.221164345741272E-001,3.100976534187794E-002,-4.217223823070526E-002,-5.551465749740601E-001,8.221164345741272E-001,
1.384433333333334E+009,1.547811552882195E-002,-6.095510721206665E-002,-5.311443209648132E-001,8.465182781219482E-001,1.547811552882195E-002,-6.095510721206665E-002,-5.311443209648132E-001,8.465182781219482E-001,
1.392800000000000E+009,-6.147423293441534E-003,-6.648086011409760E-002,-5.164544582366943E-001,8.408103585243225E-001,-6.147423293441534E-003,-6.648086011409760E-002,-5.164544582366943E-001,8.408103585243225E-001,
1.401166666666667E+009,-2.784970216453075E-002,-6.005224585533142E-002,-4.938526451587677E-001,8.610916733741760E-001,-2.784970216453075E-002,-6.005224585533142E-002,-4.938526451587677E-001,8.610916733741760E-001,
1.409533333333334E+009,-4.357816651463509E-002,-4.481280967593193E-002,-4.642474651336670E-001,8.733276128768921E-001,-4.357816651463509E-002,-4.481280967593193E-002,-4.642474651336670E-001,8.733276128768921E-001,
1.417900000000000E+009,-4.819509387016296E-002,-1.992889307439327E-002,-4.513354003429413E-001,8.673225641250610E-001,-4.819509387016296E-002,-1.992889307439327E-002,-4.513354003429413E-001,8.673225641250610E-001,
1.426266666666667E+009,-3.947769105434418E-002,-5.583279416896403E-004,-4.222236275672913E-001,8.955134153366089E-001,-3.947769105434418E-002,-5.583279416896403E-004,-4.222236275672913E-001,8.955134153366089E-001,
1.434633333333334E+009,-2.252290397882462E-002,1.353170443326235E-002,-3.911972641944885E-001,9.059060215950012E-001,-2.252290397882462E-002,1.353170443326235E-002,-3.911972641944885E-001,9.059060215950012E-001,
1.443000000000000E+009,-2.353225834667683E-003,1.584755443036556E-002,-3.764638304710388E-001,9.127312302589417E-001,-2.353225834667683E-003,1.584755443036556E-002,-3.764638304710388E-001,9.127312302589417E-001,
1.451366666666667E+009,1.504263468086720E-002,6.202129647135735E-003,-3.457090258598328E-001,9.187961816787720E-001,1.504263468086720E-002,6.202129647135735E-003,-3.457090258598328E-001,9.187961816787720E-001,
1.459733333333334E+009,2.477577701210976E-002,-1.428344380110502E-002,-3.285908102989197E-001,9.251064062118530E-001,2.477577701210976E-002,-1.428344380110502E-002,-3.285908102989197E-001,9.251064062118530E-001,
