% Version 1.00
%
%freq[Hz],re:Trc1_S11,im:Trc1_S11,re:Trc2_S21,im:Trc2_S21,re:Trc3_S11,im:Trc3_S11,re:Trc4_S21,im:Trc4_S21,
6.900000000000000E+008,-1.686964929103851E-002,1.581822149455547E-002,-4.688228666782379E-001,-8.730355501174927E-001,-1.686964929103851E-002,1.581822149455547E-002,-4.688228666782379E-001,-8.730355501174927E-001,
6.983666666666666E+008,-7.328172679990530E-003,1.644873246550560E-002,-4.917316734790802E-001,-8.636658787727356E-001,-7.328172679990530E-003,1.644873246550560E-002,-4.917316734790802E-001,-8.636658787727356E-001,
7.067333333333334E+008,-7.040156051516533E-004,1.137433294206858E-002,-5.370421409606934E-001,-8.027719855308533E-001,-7.040156051516533E-004,1.137433294206858E-002,-5.370421409606934E-001,-8.027719855308533E-001,
7.151000000000000E+008,-2.354404714424163E-004,3.137188963592053E-003,-5.542201399803162E-001,-8.163033723831177E-001,-2.354404714424163E-004,3.137188963592053E-003,-5.542201399803162E-001,-8.163033723831177E-001,
7.234666666666666E+008,-3.680317196995020E-003,-2.537049120292068E-003,-5.654950141906738E-001,-8.034559488296509E-001,-3.680317196995020E-003,-2.537049120292068E-003,-5.654950141906738E-001,-8.034559488296509E-001,
7.318333333333334E+008,-1.085407566279173E-002,-5.725129041820765E-003,-5.783013105392456E-001,-8.052951693534851E-001,-1.085407566279173E-002,-5.725129041820765E-003,-5.783013105392456E-001,-8.052951693534851E-001,
7.402000000000000E+008,-1.806746795773506E-002,-6.048519164323807E-003,-6.253234148025513E-001,-7.889285683631897E-001,-1.806746795773506E-002,-6.048519164323807E-003,-6.253234148025513E-001,-7.889285683631897E-001,
7.485666666666666E+008,-2.601216919720173E-002,-9.241724037565291E-004,-6.246230602264404E-001,-7.877112030982971E-001,-2.601216919720173E-002,-9.241724037565291E-004,-6.246230602264404E-001,-7.877112030982971E-001,
7.569333333333334E+008,-2.843803539872170E-002,6.283328868448734E-003,-6.306384801864624E-001,-7.649286389350891E-001,-2.843803539872170E-002,6.283328868448734E-003,-6.306384801864624E-001,-7.649286389350891E-001,
7.653000000000000E+008,-2.496081776916981E-002,1.338016055524349E-002,-6.511681675910950E-001,-7.457535862922669E-001,-2.496081776916981E-002,1.338016055524349E-002,-6.511681675910950E-001,-7.457535862922669E-001,
7.736666666666666E+008,-1.885030418634415E-002,1.917225308716297E-002,-6.870547533035278E-001,-7.224794030189514E-001,-1.885030418634415E-002,1.917225308716297E-002,-6.870547533035278E-001,-7.224794030189514E-001,
7.820333333333334E+008,-1.049068197607994E-002,2.176410146057606E-002,-6.959266662597656E-001,-7.124401330947876E-001,-1.049068197607994E-002,2.176410146057606E-002,-6.959266662597656E-001,-7.124401330947876E-001,
7.904000000000000E+008,-5.213669501245022E-004,2.043081820011139E-002,-7.014546394348145E-001,-6.873400211334229E-001,-5.213669501245022E-004,2.043081820011139E-002,-7.014546394348145E-001,-6.873400211334229E-001,
7.987666666666666E+008,3.740212880074978E-003,1.542383711785078E-002,-7.367019057273865E-001,-6.722071766853333E-001,3.740212880074978E-003,1.542383711785078E-002,-7.367019057273865E-001,-6.722071766853333E-001,
8.071333333333334E+008,6.558187305927277E-003,9.842945262789726E-003,-7.419090270996094E-001,-6.579529047012329E-001,6.558187305927277E-003,9.842945262789726E-003,-7.419090270996094E-001,-6.579529047012329E-001,
8.155000000000000E+008,1.003024168312550E-003,3.332656342536211E-003,-7.681420445442200E-001,-6.405472755432129E-001,1.003024168312550E-003,3.332656342536211E-003,-7.681420445442200E-001,-6.405472755432129E-001,
8.238666666666666E+008,-3.644587472081184E-003,-8.717870223335922E-004,-7.693867087364197E-001,-6.105197668075562E-001,-3.644587472081184E-003,-8.717870223335922E-004,-7.693867087364197E-001,-6.105197668075562E-001,
8.322333333333334E+008,-1.164767611771822E-002,-8.735912269912660E-004,-7.898749709129334E-001,-5.913302898406982E-001,-1.164767611771822E-002,-8.735912269912660E-004,-7.898749709129334E-001,-5.913302898406982E-001,
8.406000000000000E+008,-1.843086630105972E-002,2.707120263949037E-003,-8.007866144180298E-001,-5.809471011161804E-001,-1.843086630105972E-002,2.707120263949037E-003,-8.007866144180298E-001,-5.809471011161804E-001,
8.489666666666668E+008,-2.315209247171879E-002,9.044098667800427E-003,-8.135378360748291E-001,-5.681031346321106E-001,-2.315209247171879E-002,9.044098667800427E-003,-8.135378360748291E-001,-5.681031346321106E-001,
8.573333333333334E+008,-2.233463525772095E-002,1.661005616188049E-002,-8.333331346511841E-001,-5.257481932640076E-001,-2.233463525772095E-002,1.661005616188049E-002,-8.333331346511841E-001,-5.257481932640076E-001,
8.657000000000000E+008,-1.614284515380859E-002,2.320110797882080E-002,-8.547880649566650E-001,-5.095706582069397E-001,-1.614284515380859E-002,2.320110797882080E-002,-8.547880649566650E-001,-5.095706582069397E-001,
8.740666666666668E+008,-9.494079276919365E-003,2.654112875461578E-002,-8.497503995895386E-001,-4.958799779415131E-001,-9.494079276919365E-003,2.654112875461578E-002,-8.497503995895386E-001,-4.958799779415131E-001,
8.824333333333334E+008,-2.367584384046495E-004,2.636650763452053E-002,-8.680546879768372E-001,-4.839195609092712E-001,-2.367584384046495E-004,2.636650763452053E-002,-8.680546879768372E-001,-4.839195609092712E-001,
8.908000000000000E+008,7.934905588626862E-003,2.226871997117996E-002,-8.689481616020203E-001,-4.520172476768494E-001,7.934905588626862E-003,2.226871997117996E-002,-8.689481616020203E-001,-4.520172476768494E-001,
8.991666666666668E+008,1.181898824870586E-002,1.591806486248970E-002,-8.857933878898621E-001,-4.235815703868866E-001,1.181898824870586E-002,1.591806486248970E-002,-8.857933878898621E-001,-4.235815703868866E-001,
9.075333333333334E+008,1.169158518314362E-002,9.139292873442173E-003,-9.167650341987610E-001,-4.059629738330841E-001,1.169158518314362E-002,9.139292873442173E-003,-9.167650341987610E-001,-4.059629738330841E-001,
9.159000000000000E+008,8.203867822885513E-003,6.759455893188715E-003,-9.216800332069397E-001,-3.801694214344025E-001,8.203867822885513E-003,6.759455893188715E-003,-9.216800332069397E-001,-3.801694214344025E-001,
9.242666666666668E+008,2.025040332227945E-003,3.502544248476625E-003,-9.278885722160339E-001,-3.659127652645111E-001,2.025040332227945E-003,3.502544248476625E-003,-9.278885722160339E-001,-3.659127652645111E-001,
9.326333333333334E+008,-6.228821817785502E-003,3.736819373443723E-003,-9.519845843315125E-001,-3.428227603435516E-001,-6.228821817785502E-003,3.736819373443723E-003,-9.519845843315125E-001,-3.428227603435516E-001,
9.410000000000000E+008,-1.097228098660708E-002,7.710095494985580E-003,-9.415378570556641E-001,-3.114642500877380E-001,-1.097228098660708E-002,7.710095494985580E-003,-9.415378570556641E-001,-3.114642500877380E-001,
9.493666666666668E+008,-1.403623539954424E-002,1.457866560667753E-002,-9.436686038970947E-001,-2.924779951572418E-001,-1.403623539954424E-002,1.457866560667753E-002,-9.436686038970947E-001,-2.924779951572418E-001,
9.577333333333334E+008,-1.290389150381088E-002,2.324473485350609E-002,-9.606925249099731E-001,-2.724741101264954E-001,-1.290389150381088E-002,2.324473485350609E-002,-9.606925249099731E-001,-2.724741101264954E-001,
9.661000000000000E+008,-6.571435835212469E-003,3.072327375411987E-002,-9.590901732444763E-001,-2.486400455236435E-001,-6.571435835212469E-003,3.072327375411987E-002,-9.590901732444763E-001,-2.486400455236435E-001,
9.744666666666668E+008,9.240941726602614E-004,3.224299848079681E-002,-9.658893346786499E-001,-2.228987962007523E-001,9.240941726602614E-004,3.224299848079681E-002,-9.658893346786499E-001,-2.228987962007523E-001,
9.828333333333334E+008,1.365131977945566E-002,3.016030974686146E-002,-9.710260033607483E-001,-2.037104666233063E-001,1.365131977945566E-002,3.016030974686146E-002,-9.710260033607483E-001,-2.037104666233063E-001,
9.912000000000000E+008,2.102949470281601E-002,2.460704185068607E-002,-9.736242294311523E-001,-1.740090250968933E-001,2.102949470281601E-002,2.460704185068607E-002,-9.736242294311523E-001,-1.740090250968933E-001,
9.995666666666668E+008,2.722823806107044E-002,1.670379191637039E-002,-9.899889826774597E-001,-1.395267248153687E-001,2.722823806107044E-002,1.670379191637039E-002,-9.899889826774597E-001,-1.395267248153687E-001,
1.007933333333333E+009,2.687139622867107E-002,7.653847336769104E-003,-9.890580177307129E-001,-1.252451390028000E-001,2.687139622867107E-002,7.653847336769104E-003,-9.890580177307129E-001,-1.252451390028000E-001,
1.016300000000000E+009,2.122891880571842E-002,2.326891524717212E-003,-9.953592419624329E-001,-9.919855743646622E-002,2.122891880571842E-002,2.326891524717212E-003,-9.953592419624329E-001,-9.919855743646622E-002,
1.024666666666667E+009,1.319317799061537E-002,-4.337660502642393E-003,-9.970481991767883E-001,-6.782196462154388E-002,1.319317799061537E-002,-4.337660502642393E-003,-9.970481991767883E-001,-6.782196462154388E-002,
1.033033333333333E+009,5.041251424700022E-003,-1.599623356014490E-003,-9.960488677024841E-001,-4.944416508078575E-002,5.041251424700022E-003,-1.599623356014490E-003,-9.960488677024841E-001,-4.944416508078575E-002,
1.041400000000000E+009,-1.713135046884418E-003,4.693256225436926E-003,-9.804700613021851E-001,-9.884851053357124E-003,-1.713135046884418E-003,4.693256225436926E-003,-9.804700613021851E-001,-9.884851053357124E-003,
1.049766666666667E+009,-4.773603752255440E-003,1.338108256459236E-002,-9.954565763473511E-001,7.126095704734325E-003,-4.773603752255440E-003,1.338108256459236E-002,-9.954565763473511E-001,7.126095704734325E-003,
1.058133333333333E+009,-9.857068071141839E-004,2.077435515820980E-002,-9.932948350906372E-001,2.549021877348423E-002,-9.857068071141839E-004,2.077435515820980E-002,-9.932948350906372E-001,2.549021877348423E-002,
1.066500000000000E+009,8.325455710291863E-003,2.610949054360390E-002,-1.000965714454651E+000,6.460829824209213E-002,8.325455710291863E-003,2.610949054360390E-002,-1.000965714454651E+000,6.460829824209213E-002,
1.074866666666667E+009,1.855226419866085E-002,2.567030861973763E-002,-9.858133196830750E-001,8.238233625888825E-002,1.855226419866085E-002,2.567030861973763E-002,-9.858133196830750E-001,8.238233625888825E-002,
1.083233333333334E+009,2.957914955914021E-002,1.614941656589508E-002,-9.869859814643860E-001,1.037765890359879E-001,2.957914955914021E-002,1.614941656589508E-002,-9.869859814643860E-001,1.037765890359879E-001,
1.091600000000000E+009,3.593377023935318E-002,6.746556144207716E-003,-9.779916405677795E-001,1.262192726135254E-001,3.593377023935318E-002,6.746556144207716E-003,-9.779916405677795E-001,1.262192726135254E-001,
1.099966666666667E+009,3.737162426114082E-002,-6.521981675177813E-003,-9.841285943984985E-001,1.639304608106613E-001,3.737162426114082E-002,-6.521981675177813E-003,-9.841285943984985E-001,1.639304608106613E-001,
1.108333333333334E+009,2.843884378671646E-002,-1.750368624925613E-002,-9.612658619880676E-001,1.685142964124680E-001,2.843884378671646E-002,-1.750368624925613E-002,-9.612658619880676E-001,1.685142964124680E-001,
1.116700000000000E+009,1.603907160460949E-002,-1.802317239344120E-002,-9.608542323112488E-001,2.120487838983536E-001,1.603907160460949E-002,-1.802317239344120E-002,-9.608542323112488E-001,2.120487838983536E-001,
1.125066666666667E+009,2.145632635802031E-003,-1.785199530422688E-002,-9.690114259719849E-001,2.217841148376465E-001,2.145632635802031E-003,-1.785199530422688E-002,-9.690114259719849E-001,2.217841148376465E-001,
1.133433333333334E+009,-8.801302872598171E-003,-5.947756581008434E-003,-9.694983959197998E-001,2.453853189945221E-001,-8.801302872598171E-003,-5.947756581008434E-003,-9.694983959197998E-001,2.453853189945221E-001,
1.141800000000000E+009,-1.209431793540716E-002,6.435363087803125E-003,-9.442089796066284E-001,2.693375945091248E-001,-1.209431793540716E-002,6.435363087803125E-003,-9.442089796066284E-001,2.693375945091248E-001,
1.150166666666667E+009,-7.939434610307217E-003,2.292421460151672E-002,-9.296106696128845E-001,2.974897921085358E-001,-7.939434610307217E-003,2.292421460151672E-002,-9.296106696128845E-001,2.974897921085358E-001,
1.158533333333334E+009,5.363740026950836E-003,3.206177800893784E-002,-9.352333545684815E-001,3.211426436901093E-001,5.363740026950836E-003,3.206177800893784E-002,-9.352333545684815E-001,3.211426436901093E-001,
1.166900000000000E+009,2.305948920547962E-002,3.332084789872170E-002,-9.261062741279602E-001,3.571105897426605E-001,2.305948920547962E-002,3.332084789872170E-002,-9.261062741279602E-001,3.571105897426605E-001,
1.175266666666667E+009,3.919003158807755E-002,2.394926361739636E-002,-9.198904037475586E-001,3.652022480964661E-001,3.919003158807755E-002,2.394926361739636E-002,-9.198904037475586E-001,3.652022480964661E-001,
1.183633333333334E+009,5.121232569217682E-002,9.092985652387142E-003,-9.094718098640442E-001,4.017168581485748E-001,5.121232569217682E-002,9.092985652387142E-003,-9.094718098640442E-001,4.017168581485748E-001,
1.192000000000000E+009,5.357369035482407E-002,-1.121532078832388E-002,-9.005936384201050E-001,4.106355607509613E-001,5.357369035482407E-002,-1.121532078832388E-002,-9.005936384201050E-001,4.106355607509613E-001,
1.200366666666667E+009,4.394700750708580E-002,-2.757132798433304E-002,-8.920820355415344E-001,4.387292861938477E-001,4.394700750708580E-002,-2.757132798433304E-002,-8.920820355415344E-001,4.387292861938477E-001,
1.208733333333334E+009,2.919283136725426E-002,-3.830135241150856E-002,-8.846294879913330E-001,4.548191726207733E-001,2.919283136725426E-002,-3.830135241150856E-002,-8.846294879913330E-001,4.548191726207733E-001,
1.217100000000000E+009,1.027421932667494E-002,-3.565258160233498E-002,-8.743985295295715E-001,4.735463857650757E-001,1.027421932667494E-002,-3.565258160233498E-002,-8.743985295295715E-001,4.735463857650757E-001,
1.225466666666667E+009,-2.178262453526259E-003,-2.745976485311985E-002,-8.492922782897949E-001,5.040990710258484E-001,-2.178262453526259E-003,-2.745976485311985E-002,-8.492922782897949E-001,5.040990710258484E-001,
1.233833333333334E+009,-1.106617692857981E-002,-1.115153171122074E-002,-8.353688120841980E-001,5.222232341766357E-001,-1.106617692857981E-002,-1.115153171122074E-002,-8.353688120841980E-001,5.222232341766357E-001,
1.242200000000000E+009,-9.763272479176521E-003,6.765568163245916E-003,-8.224588632583618E-001,5.340942144393921E-001,-9.763272479176521E-003,6.765568163245916E-003,-8.224588632583618E-001,5.340942144393921E-001,
1.250566666666667E+009,3.147722454741597E-003,1.883865706622601E-002,-7.988200187683106E-001,5.637229084968567E-001,3.147722454741597E-003,1.883865706622601E-002,-7.988200187683106E-001,5.637229084968567E-001,
1.258933333333334E+009,2.089463546872139E-002,2.217881567776203E-002,-8.119055628776550E-001,5.846761465072632E-001,2.089463546872139E-002,2.217881567776203E-002,-8.119055628776550E-001,5.846761465072632E-001,
1.267300000000000E+009,3.899314999580383E-002,1.342821400612593E-002,-7.909796833992004E-001,5.981513857841492E-001,3.899314999580383E-002,1.342821400612593E-002,-7.909796833992004E-001,5.981513857841492E-001,
1.275666666666667E+009,5.022731050848961E-002,-4.312723409384489E-003,-7.603301405906677E-001,6.222414374351502E-001,5.022731050848961E-002,-4.312723409384489E-003,-7.603301405906677E-001,6.222414374351502E-001,
1.284033333333334E+009,5.152723938226700E-002,-2.632776647806168E-002,-7.512816190719605E-001,6.437423825263977E-001,5.152723938226700E-002,-2.632776647806168E-002,-7.512816190719605E-001,6.437423825263977E-001,
1.292400000000000E+009,4.188982397317886E-002,-4.570869728922844E-002,-7.431710958480835E-001,6.620301604270935E-001,4.188982397317886E-002,-4.570869728922844E-002,-7.431710958480835E-001,6.620301604270935E-001,
1.300766666666667E+009,2.397655136883259E-002,-5.569681897759438E-002,-7.185415029525757E-001,6.784546971321106E-001,2.397655136883259E-002,-5.569681897759438E-002,-7.185415029525757E-001,6.784546971321106E-001,
1.309133333333334E+009,1.940805930644274E-003,-5.521094799041748E-002,-7.080790996551514E-001,6.955804824829102E-001,1.940805930644274E-003,-5.521094799041748E-002,-7.080790996551514E-001,6.955804824829102E-001,
1.317500000000000E+009,-1.364789064973593E-002,-4.434630274772644E-002,-6.861876845359802E-001,7.114805579185486E-001,-1.364789064973593E-002,-4.434630274772644E-002,-6.861876845359802E-001,7.114805579185486E-001,
1.325866666666667E+009,-2.106065303087235E-002,-2.502459846436977E-002,-6.711037755012512E-001,7.260229587554932E-001,-2.106065303087235E-002,-2.502459846436977E-002,-6.711037755012512E-001,7.260229587554932E-001,
1.334233333333334E+009,-1.693169958889484E-002,-6.091350689530373E-003,-6.446791291236877E-001,7.476638555526733E-001,-1.693169958889484E-002,-6.091350689530373E-003,-6.446791291236877E-001,7.476638555526733E-001,
1.342600000000000E+009,-5.134153179824352E-003,5.166088230907917E-003,-6.272649168968201E-001,7.674801349639893E-001,-5.134153179824352E-003,5.166088230907917E-003,-6.272649168968201E-001,7.674801349639893E-001,
1.350966666666667E+009,1.300243008881807E-002,6.632166448980570E-003,-6.002163887023926E-001,7.911084294319153E-001,1.300243008881807E-002,6.632166448980570E-003,-6.002163887023926E-001,7.911084294319153E-001,
1.359333333333334E+009,2.930296957492828E-002,-2.634335309267044E-003,-5.908734798431397E-001,7.956215143203735E-001,2.930296957492828E-002,-2.634335309267044E-003,-5.908734798431397E-001,7.956215143203735E-001,
1.367700000000000E+009,3.392400220036507E-002,-2.339853160083294E-002,-5.721809267997742E-001,8.072066903114319E-001,3.392400220036507E-002,-2.339853160083294E-002,-5.721809267997742E-001,8.072066903114319E-001,
1.376066666666667E+009,3.153728321194649E-002,-4.223765060305595E-002,-5.562356114387512E-001,8.249047994613648E-001,3.153728321194649E-002,-4.223765060305595E-002,-5.562356114387512E-001,8.249047994613648E-001,
1.384433333333334E+009,1.582160405814648E-002,-6.097820028662682E-002,-5.334461927413940E-001,8.498243689537048E-001,1.582160405814648E-002,-6.097820028662682E-002,-5.334461927413940E-001,8.498243689537048E-001,
1.392800000000000E+009,-5.733706988394260E-003,-6.651002168655396E-002,-5.196858644485474E-001,8.456535935401917E-001,-5.733706988394260E-003,-6.651002168655396E-002,-5.196858644485474E-001,8.456535935401917E-001,
1.401166666666667E+009,-2.755416743457317E-002,-6.007480621337891E-002,-4.965678751468658E-001,8.640555739402771E-001,-2.755416743457317E-002,-6.007480621337891E-002,-4.965678751468658E-001,8.640555739402771E-001,
1.409533333333334E+009,-4.340801388025284E-002,-4.455824196338654E-002,-4.647693932056427E-001,8.745895028114319E-001,-4.340801388025284E-002,-4.455824196338654E-002,-4.647693932056427E-001,8.745895028114319E-001,
1.417900000000000E+009,-4.842407628893852E-002,-1.976708322763443E-002,-4.554369747638702E-001,8.700339198112488E-001,-4.842407628893852E-002,-1.976708322763443E-002,-4.554369747638702E-001,8.700339198112488E-001,
1.426266666666667E+009,-3.958304226398468E-002,-2.473625645507127E-004,-4.206521213054657E-001,9.007713198661804E-001,-3.958304226398468E-002,-2.473625645507127E-004,-4.206521213054657E-001,9.007713198661804E-001,
1.434633333333334E+009,-2.283499762415886E-002,1.350193563848734E-002,-3.930147588253021E-001,9.088912010192871E-001,-2.283499762415886E-002,1.350193563848734E-002,-3.930147588253021E-001,9.088912010192871E-001,
1.443000000000000E+009,-2.607017289847136E-003,1.553699653595686E-002,-3.780972659587860E-001,9.150191545486450E-001,-2.607017289847136E-003,1.553699653595686E-002,-3.780972659587860E-001,9.150191545486450E-001,
1.451366666666667E+009,1.518403179943562E-002,6.071263924241066E-003,-3.500305712223053E-001,9.199484586715698E-001,1.518403179943562E-002,6.071263924241066E-003,-3.500305712223053E-001,9.199484586715698E-001,
1.459733333333334E+009,2.453889138996601E-002,-1.455849409103394E-002,-3.294306695461273E-001,9.253115653991699E-001,2.453889138996601E-002,-1.455849409103394E-002,-3.294306695461273E-001,9.253115653991699E-001,
