% Version 1.00
%
%freq[Hz],re:Trc1_S11,im:Trc1_S11,re:Trc2_S21,im:Trc2_S21,re:Trc3_S11,im:Trc3_S11,re:Trc4_S21,im:Trc4_S21,
6.900000000000000E+008,-3.010268881917000E-002,5.846866220235825E-002,-5.022822618484497E-001,-8.470103740692139E-001,-3.010268881917000E-002,5.846866220235825E-002,-5.022822618484497E-001,-8.470103740692139E-001,
6.983666666666666E+008,-1.980267092585564E-002,5.944396555423737E-002,-5.239241123199463E-001,-8.381624221801758E-001,-1.980267092585564E-002,5.944396555423737E-002,-5.239241123199463E-001,-8.381624221801758E-001,
7.067333333333334E+008,-1.272226125001907E-002,5.465495958924294E-002,-5.691136717796326E-001,-7.764031887054443E-001,-1.272226125001907E-002,5.465495958924294E-002,-5.691136717796326E-001,-7.764031887054443E-001,
7.151000000000000E+008,-1.105942018330097E-002,4.735115543007851E-002,-5.884009599685669E-001,-7.895455956459045E-001,-1.105942018330097E-002,4.735115543007851E-002,-5.884009599685669E-001,-7.895455956459045E-001,
7.234666666666666E+008,-1.350074168294668E-002,4.234752804040909E-002,-5.997355580329895E-001,-7.787026166915894E-001,-1.350074168294668E-002,4.234752804040909E-002,-5.997355580329895E-001,-7.787026166915894E-001,
7.318333333333334E+008,-1.947990618646145E-002,4.038507491350174E-002,-6.159056425094605E-001,-7.764367461204529E-001,-1.947990618646145E-002,4.038507491350174E-002,-6.159056425094605E-001,-7.764367461204529E-001,
7.402000000000000E+008,-2.518887445330620E-002,4.114843532443047E-002,-6.599938273429871E-001,-7.584921717643738E-001,-2.518887445330620E-002,4.114843532443047E-002,-6.599938273429871E-001,-7.584921717643738E-001,
7.485666666666666E+008,-3.102912195026875E-002,4.761897400021553E-002,-6.587169170379639E-001,-7.539565563201904E-001,-3.102912195026875E-002,4.761897400021553E-002,-6.587169170379639E-001,-7.539565563201904E-001,
7.569333333333334E+008,-3.123890422284603E-002,5.572308227419853E-002,-6.672567129135132E-001,-7.333862185478210E-001,-3.123890422284603E-002,5.572308227419853E-002,-6.672567129135132E-001,-7.333862185478210E-001,
7.653000000000000E+008,-2.533561922609806E-002,6.337340176105499E-002,-6.855363249778748E-001,-7.131298184394836E-001,-2.533561922609806E-002,6.337340176105499E-002,-6.855363249778748E-001,-7.131298184394836E-001,
7.736666666666666E+008,-1.762715354561806E-002,6.960722059011459E-002,-7.171850204467773E-001,-6.870270967483521E-001,-1.762715354561806E-002,6.960722059011459E-002,-7.171850204467773E-001,-6.870270967483521E-001,
7.820333333333334E+008,-7.434017956256867E-003,7.234285771846771E-002,-7.283501625061035E-001,-6.742641329765320E-001,-7.434017956256867E-003,7.234285771846771E-002,-7.283501625061035E-001,-6.742641329765320E-001,
7.904000000000000E+008,3.906939644366503E-003,7.116598635911942E-002,-7.327569723129273E-001,-6.536388397216797E-001,3.906939644366503E-003,7.116598635911942E-002,-7.327569723129273E-001,-6.536388397216797E-001,
7.987666666666666E+008,9.452286176383495E-003,6.561273336410523E-002,-7.666672468185425E-001,-6.321960687637329E-001,9.452286176383495E-003,6.561273336410523E-002,-7.666672468185425E-001,-6.321960687637329E-001,
8.071333333333334E+008,1.337261311709881E-002,6.049598008394241E-002,-7.723672389984131E-001,-6.212084889411926E-001,1.337261311709881E-002,6.049598008394241E-002,-7.723672389984131E-001,-6.212084889411926E-001,
8.155000000000000E+008,8.458981290459633E-003,5.436985194683075E-002,-7.954839468002319E-001,-5.990800857543945E-001,8.458981290459633E-003,5.436985194683075E-002,-7.954839468002319E-001,-5.990800857543945E-001,
8.238666666666666E+008,5.814653355628252E-003,5.020024627447128E-002,-7.966853380203247E-001,-5.700060129165649E-001,5.814653355628252E-003,5.020024627447128E-002,-7.966853380203247E-001,-5.700060129165649E-001,
8.322333333333334E+008,-5.426093703135848E-004,5.083819851279259E-002,-8.184372186660767E-001,-5.503317117691040E-001,-5.426093703135848E-004,5.083819851279259E-002,-8.184372186660767E-001,-5.503317117691040E-001,
8.406000000000000E+008,-5.024914164096117E-003,5.472476780414581E-002,-8.292452692985535E-001,-5.368205904960632E-001,-5.024914164096117E-003,5.472476780414581E-002,-8.292452692985535E-001,-5.368205904960632E-001,
8.489666666666668E+008,-7.627621293067932E-003,6.217211112380028E-002,-8.401445746421814E-001,-5.216967463493347E-001,-7.627621293067932E-003,6.217211112380028E-002,-8.401445746421814E-001,-5.216967463493347E-001,
8.573333333333334E+008,-4.861996509134769E-003,6.970931589603424E-002,-8.573833107948303E-001,-4.808256030082703E-001,-4.861996509134769E-003,6.970931589603424E-002,-8.573833107948303E-001,-4.808256030082703E-001,
8.657000000000000E+008,5.161236971616745E-003,7.648539543151856E-002,-8.733373284339905E-001,-4.607221782207489E-001,5.161236971616745E-003,7.648539543151856E-002,-8.733373284339905E-001,-4.607221782207489E-001,
8.740666666666668E+008,1.393092423677445E-002,7.862377911806107E-002,-8.718239665031433E-001,-4.485045373439789E-001,1.393092423677445E-002,7.862377911806107E-002,-8.718239665031433E-001,-4.485045373439789E-001,
8.824333333333334E+008,2.478828839957714E-002,7.759596407413483E-002,-8.885008096694946E-001,-4.335556328296661E-001,2.478828839957714E-002,7.759596407413483E-002,-8.885008096694946E-001,-4.335556328296661E-001,
8.908000000000000E+008,3.476612269878388E-002,7.240646332502365E-002,-8.889389038085938E-001,-4.011222720146179E-001,3.476612269878388E-002,7.240646332502365E-002,-8.889389038085938E-001,-4.011222720146179E-001,
8.991666666666668E+008,3.905639797449112E-002,6.512027978897095E-002,-9.033427238464356E-001,-3.744212388992310E-001,3.905639797449112E-002,6.512027978897095E-002,-9.033427238464356E-001,-3.744212388992310E-001,
9.075333333333334E+008,4.049940407276154E-002,5.825285241007805E-002,-9.335598349571228E-001,-3.546653389930725E-001,4.049940407276154E-002,5.825285241007805E-002,-9.335598349571228E-001,-3.546653389930725E-001,
9.159000000000000E+008,3.853579238057137E-002,5.514927953481674E-002,-9.393849968910217E-001,-3.260616958141327E-001,3.853579238057137E-002,5.514927953481674E-002,-9.393849968910217E-001,-3.260616958141327E-001,
9.242666666666668E+008,3.410798683762550E-002,5.164658650755882E-002,-9.446890354156494E-001,-3.112595081329346E-001,3.410798683762550E-002,5.164658650755882E-002,-9.446890354156494E-001,-3.112595081329346E-001,
9.326333333333334E+008,2.735374309122562E-002,5.231317505240440E-002,-9.650974869728088E-001,-2.876936495304108E-001,2.735374309122562E-002,5.231317505240440E-002,-9.650974869728088E-001,-2.876936495304108E-001,
9.410000000000000E+008,2.457757666707039E-002,5.652175843715668E-002,-9.586437344551086E-001,-2.537761330604553E-001,2.457757666707039E-002,5.652175843715668E-002,-9.586437344551086E-001,-2.537761330604553E-001,
9.493666666666668E+008,2.463093400001526E-002,6.237437576055527E-002,-9.560530781745911E-001,-2.359804809093475E-001,2.463093400001526E-002,6.237437576055527E-002,-9.560530781745911E-001,-2.359804809093475E-001,
9.577333333333334E+008,2.814969792962074E-002,7.019856572151184E-002,-9.723798632621765E-001,-2.123401463031769E-001,2.814969792962074E-002,7.019856572151184E-002,-9.723798632621765E-001,-2.123401463031769E-001,
9.661000000000000E+008,3.818376734852791E-002,7.620924711227417E-002,-9.691799283027649E-001,-1.882364600896835E-001,3.818376734852791E-002,7.620924711227417E-002,-9.691799283027649E-001,-1.882364600896835E-001,
9.744666666666668E+008,4.711726307868958E-002,7.527343928813934E-002,-9.742080569267273E-001,-1.643486171960831E-001,4.711726307868958E-002,7.527343928813934E-002,-9.742080569267273E-001,-1.643486171960831E-001,
9.828333333333334E+008,6.129867210984230E-002,7.118741422891617E-002,-9.769341945648193E-001,-1.426700055599213E-001,6.129867210984230E-002,7.118741422891617E-002,-9.769341945648193E-001,-1.426700055599213E-001,
9.912000000000000E+008,6.948080658912659E-002,6.388373672962189E-002,-9.757974147796631E-001,-1.159902736544609E-001,6.948080658912659E-002,6.388373672962189E-002,-9.757974147796631E-001,-1.159902736544609E-001,
9.995666666666668E+008,7.615954428911209E-002,5.376169830560684E-002,-9.917532801628113E-001,-7.903046160936356E-002,7.615954428911209E-002,5.376169830560684E-002,-9.917532801628113E-001,-7.903046160936356E-002,
1.007933333333333E+009,7.669903337955475E-002,4.385350644588471E-002,-9.898414611816406E-001,-6.430495530366898E-002,7.669903337955475E-002,4.385350644588471E-002,-9.898414611816406E-001,-6.430495530366898E-002,
1.016300000000000E+009,7.135607302188873E-002,3.724861517548561E-002,-9.914118647575378E-001,-3.736300021409988E-002,7.135607302188873E-002,3.724861517548561E-002,-9.914118647575378E-001,-3.736300021409988E-002,
1.024666666666667E+009,6.465854495763779E-002,3.076429292559624E-002,-9.911743402481079E-001,-5.028807558119297E-003,6.465854495763779E-002,3.076429292559624E-002,-9.911743402481079E-001,-5.028807558119297E-003,
1.033033333333333E+009,5.843893438577652E-002,3.299508988857269E-002,-9.908754229545593E-001,1.457609795033932E-002,5.843893438577652E-002,3.299508988857269E-002,-9.908754229545593E-001,1.457609795033932E-002,
1.041400000000000E+009,5.308174341917038E-002,3.816289082169533E-002,-9.761577248573303E-001,5.292790010571480E-002,5.308174341917038E-002,3.816289082169533E-002,-9.761577248573303E-001,5.292790010571480E-002,
1.049766666666667E+009,5.328341946005821E-002,4.542041569948196E-002,-9.879071712493897E-001,7.258268445730209E-002,5.328341946005821E-002,4.542041569948196E-002,-9.879071712493897E-001,7.258268445730209E-002,
1.058133333333333E+009,5.960432067513466E-002,5.082510411739349E-002,-9.815655946731567E-001,9.131761640310288E-002,5.960432067513466E-002,5.082510411739349E-002,-9.815655946731567E-001,9.131761640310288E-002,
1.066500000000000E+009,7.146072387695313E-002,5.322870612144470E-002,-9.880672097206116E-001,1.304774433374405E-001,7.146072387695313E-002,5.322870612144470E-002,-9.880672097206116E-001,1.304774433374405E-001,
1.074866666666667E+009,8.202012628316879E-002,5.013456568121910E-002,-9.702289104461670E-001,1.466840356588364E-001,8.202012628316879E-002,5.013456568121910E-002,-9.702289104461670E-001,1.466840356588364E-001,
1.083233333333334E+009,9.346057474613190E-002,3.732645884156227E-002,-9.676241874694824E-001,1.684577614068985E-001,9.346057474613190E-002,3.732645884156227E-002,-9.676241874694824E-001,1.684577614068985E-001,
1.091600000000000E+009,9.980011731386185E-002,2.612251043319702E-002,-9.588270187377930E-001,1.897109150886536E-001,9.980011731386185E-002,2.612251043319702E-002,-9.588270187377930E-001,1.897109150886536E-001,
1.099966666666667E+009,1.017903238534927E-001,1.075326278805733E-002,-9.621324539184570E-001,2.280015200376511E-001,1.017903238534927E-001,1.075326278805733E-002,-9.621324539184570E-001,2.280015200376511E-001,
1.108333333333334E+009,9.298469126224518E-002,-5.767353577539325E-004,-9.407514333724976E-001,2.317329943180084E-001,9.298469126224518E-002,-5.767353577539325E-004,-9.407514333724976E-001,2.317329943180084E-001,
1.116700000000000E+009,7.942917197942734E-002,-2.183450618758798E-003,-9.393765926361084E-001,2.756226956844330E-001,7.942917197942734E-002,-2.183450618758798E-003,-9.393765926361084E-001,2.756226956844330E-001,
1.125066666666667E+009,6.781914830207825E-002,-2.035277895629406E-003,-9.447060823440552E-001,2.861956655979157E-001,6.781914830207825E-002,-2.035277895629406E-003,-9.447060823440552E-001,2.861956655979157E-001,
1.133433333333334E+009,5.925860255956650E-002,8.996361866593361E-003,-9.454579353332520E-001,3.117976486682892E-001,5.925860255956650E-002,8.996361866593361E-003,-9.454579353332520E-001,3.117976486682892E-001,
1.141800000000000E+009,5.877612903714180E-002,1.942462101578713E-002,-9.166190028190613E-001,3.332818150520325E-001,5.877612903714180E-002,1.942462101578713E-002,-9.166190028190613E-001,3.332818150520325E-001,
1.150166666666667E+009,6.589303165674210E-002,3.242903947830200E-002,-8.990250229835510E-001,3.639544844627380E-001,6.589303165674210E-002,3.242903947830200E-002,-8.990250229835510E-001,3.639544844627380E-001,
1.158533333333334E+009,8.020459115505219E-002,3.782515600323677E-002,-9.007686972618103E-001,3.883928358554840E-001,8.020459115505219E-002,3.782515600323677E-002,-9.007686972618103E-001,3.883928358554840E-001,
1.166900000000000E+009,9.962727874517441E-002,3.449143841862679E-002,-8.905775547027588E-001,4.218839108943939E-001,9.962727874517441E-002,3.449143841862679E-002,-8.905775547027588E-001,4.218839108943939E-001,
1.175266666666667E+009,1.137711033225060E-001,1.998187042772770E-002,-8.793977499008179E-001,4.265443682670593E-001,1.137711033225060E-001,1.998187042772770E-002,-8.793977499008179E-001,4.265443682670593E-001,
1.183633333333334E+009,1.244387477636337E-001,1.610102131962776E-003,-8.667113780975342E-001,4.637227356433868E-001,1.244387477636337E-001,1.610102131962776E-003,-8.667113780975342E-001,4.637227356433868E-001,
1.192000000000000E+009,1.245684772729874E-001,-2.081859670579433E-002,-8.568769097328186E-001,4.701009392738342E-001,1.245684772729874E-001,-2.081859670579433E-002,-8.568769097328186E-001,4.701009392738342E-001,
1.200366666666667E+009,1.132641583681107E-001,-3.758244588971138E-002,-8.483785986900330E-001,4.969528019428253E-001,1.132641583681107E-001,-3.758244588971138E-002,-8.483785986900330E-001,4.969528019428253E-001,
1.208733333333334E+009,9.766551107168198E-002,-4.815596714615822E-002,-8.430755734443665E-001,5.142556428909302E-001,9.766551107168198E-002,-4.815596714615822E-002,-8.430755734443665E-001,5.142556428909302E-001,
1.217100000000000E+009,7.960698008537293E-002,-4.593233019113541E-002,-8.287231326103210E-001,5.347500443458557E-001,7.960698008537293E-002,-4.593233019113541E-002,-8.287231326103210E-001,5.347500443458557E-001,
1.225466666666667E+009,6.837484985589981E-002,-3.888099640607834E-002,-8.035669326782227E-001,5.620338916778565E-001,6.837484985589981E-002,-3.888099640607834E-002,-8.035669326782227E-001,5.620338916778565E-001,
1.233833333333334E+009,6.176167353987694E-002,-2.336952649056912E-002,-7.866296172142029E-001,5.810492038726807E-001,6.176167353987694E-002,-2.336952649056912E-002,-7.866296172142029E-001,5.810492038726807E-001,
1.242200000000000E+009,6.581472605466843E-002,-8.344993926584721E-003,-7.721417546272278E-001,5.948647856712341E-001,6.581472605466843E-002,-8.344993926584721E-003,-7.721417546272278E-001,5.948647856712341E-001,
1.250566666666667E+009,8.044359087944031E-002,-1.038046437315643E-003,-7.442460656166077E-001,6.225507259368897E-001,8.044359087944031E-002,-1.038046437315643E-003,-7.442460656166077E-001,6.225507259368897E-001,
1.258933333333334E+009,9.743275493383408E-002,-3.488845890387893E-003,-7.529877424240112E-001,6.422645449638367E-001,9.743275493383408E-002,-3.488845890387893E-003,-7.529877424240112E-001,6.422645449638367E-001,
1.267300000000000E+009,1.135200411081314E-001,-1.780829578638077E-002,-7.307713627815247E-001,6.545453667640686E-001,1.135200411081314E-001,-1.780829578638077E-002,-7.307713627815247E-001,6.545453667640686E-001,
1.275666666666667E+009,1.220659464597702E-001,-3.854259103536606E-002,-6.973487138748169E-001,6.757469773292542E-001,1.220659464597702E-001,-3.854259103536606E-002,-6.973487138748169E-001,6.757469773292542E-001,
1.284033333333334E+009,1.195133179426193E-001,-6.280390173196793E-002,-6.899225711822510E-001,6.941401362419128E-001,1.195133179426193E-001,-6.280390173196793E-002,-6.899225711822510E-001,6.941401362419128E-001,
1.292400000000000E+009,1.068561375141144E-001,-8.279459178447723E-002,-6.784503459930420E-001,7.084003686904907E-001,1.068561375141144E-001,-8.279459178447723E-002,-6.784503459930420E-001,7.084003686904907E-001,
1.300766666666667E+009,8.730705827474594E-002,-9.210152179002762E-002,-6.557164192199707E-001,7.242410778999329E-001,8.730705827474594E-002,-9.210152179002762E-002,-6.557164192199707E-001,7.242410778999329E-001,
1.309133333333334E+009,6.467894464731216E-002,-9.193969517946243E-002,-6.446247696876526E-001,7.413951754570007E-001,6.467894464731216E-002,-9.193969517946243E-002,-6.446247696876526E-001,7.413951754570007E-001,
1.317500000000000E+009,5.135941132903099E-002,-8.139085769653320E-002,-6.202518343925476E-001,7.566860318183899E-001,5.135941132903099E-002,-8.139085769653320E-002,-6.202518343925476E-001,7.566860318183899E-001,
1.325866666666667E+009,4.473296925425530E-002,-6.345332413911820E-002,-6.051074266433716E-001,7.720370888710022E-001,4.473296925425530E-002,-6.345332413911820E-002,-6.051074266433716E-001,7.720370888710022E-001,
1.334233333333334E+009,5.045027658343315E-002,-4.795114696025848E-002,-5.758780837059021E-001,7.929095625877380E-001,5.045027658343315E-002,-4.795114696025848E-002,-5.758780837059021E-001,7.929095625877380E-001,
1.342600000000000E+009,6.288221478462219E-002,-4.140438139438629E-002,-5.559764504432678E-001,8.113611340522766E-001,6.288221478462219E-002,-4.140438139438629E-002,-5.559764504432678E-001,8.113611340522766E-001,
1.350966666666667E+009,7.924987375736237E-002,-4.531848430633545E-002,-5.241475701332092E-001,8.351041078567505E-001,7.924987375736237E-002,-4.531848430633545E-002,-5.241475701332092E-001,8.351041078567505E-001,
1.359333333333334E+009,9.335198998451233E-002,-5.892755463719368E-002,-5.126870870590210E-001,8.357536196708679E-001,9.335198998451233E-002,-5.892755463719368E-002,-5.126870870590210E-001,8.357536196708679E-001,
1.367700000000000E+009,9.293089807033539E-002,-8.167194575071335E-002,-4.947724640369415E-001,8.431402444839478E-001,9.293089807033539E-002,-8.167194575071335E-002,-4.947724640369415E-001,8.431402444839478E-001,
1.376066666666667E+009,8.579293638467789E-002,-1.021546721458435E-001,-4.795598089694977E-001,8.583195209503174E-001,8.579293638467789E-002,-1.021546721458435E-001,-4.795598089694977E-001,8.583195209503174E-001,
1.384433333333334E+009,6.670758128166199E-002,-1.205413565039635E-001,-4.544703960418701E-001,8.785668015480042E-001,6.670758128166199E-002,-1.205413565039635E-001,-4.544703960418701E-001,8.785668015480042E-001,
1.392800000000000E+009,4.333727434277535E-002,-1.250256747007370E-001,-4.418872892856598E-001,8.730041980743408E-001,4.333727434277535E-002,-1.250256747007370E-001,-4.418872892856598E-001,8.730041980743408E-001,
1.401166666666667E+009,2.186575531959534E-002,-1.177350282669067E-001,-4.190550148487091E-001,8.917089104652405E-001,2.186575531959534E-002,-1.177350282669067E-001,-4.190550148487091E-001,8.917089104652405E-001,
1.409533333333334E+009,6.805646698921919E-003,-1.019182279706001E-001,-3.882837593555450E-001,9.040270447731018E-001,6.805646698921919E-003,-1.019182279706001E-001,-3.882837593555450E-001,9.040270447731018E-001,
1.417900000000000E+009,3.822048660367727E-003,-7.889963686466217E-002,-3.747028112411499E-001,8.995878696441650E-001,3.822048660367727E-003,-7.889963686466217E-002,-3.747028112411499E-001,8.995878696441650E-001,
1.426266666666667E+009,1.346456073224545E-002,-6.372569501399994E-002,-3.421812653541565E-001,9.247926473617554E-001,1.346456073224545E-002,-6.372569501399994E-002,-3.421812653541565E-001,9.247926473617554E-001,
1.434633333333334E+009,3.064246848225594E-002,-5.427767708897591E-002,-3.074527978897095E-001,9.344002604484558E-001,3.064246848225594E-002,-5.427767708897591E-002,-3.074527978897095E-001,9.344002604484558E-001,
1.443000000000000E+009,4.821272566914558E-002,-5.752550810575485E-002,-2.896016538143158E-001,9.379969239234924E-001,4.821272566914558E-002,-5.752550810575485E-002,-2.896016538143158E-001,9.379969239234924E-001,
1.451366666666667E+009,6.141471490263939E-002,-7.126757502555847E-002,-2.572915554046631E-001,9.404522180557251E-001,6.141471490263939E-002,-7.126757502555847E-002,-2.572915554046631E-001,9.404522180557251E-001,
1.459733333333334E+009,6.573300808668137E-002,-9.494860470294952E-002,-2.404306232929230E-001,9.428079724311829E-001,6.573300808668137E-002,-9.494860470294952E-002,-2.404306232929230E-001,9.428079724311829E-001,
