% Version 1.00
%
%freq[Hz],re:Trc1_S11,im:Trc1_S11,re:Trc2_S21,im:Trc2_S21,re:Trc3_S11,im:Trc3_S11,re:Trc4_S21,im:Trc4_S21,
6.900000000000000E+008,-3.788245841860771E-002,6.222713738679886E-002,-5.075601935386658E-001,-8.404986262321472E-001,-3.788245841860771E-002,6.222713738679886E-002,-5.075601935386658E-001,-8.404986262321472E-001,
6.983666666666666E+008,-2.811290137469769E-002,6.361719965934753E-002,-5.278380513191223E-001,-8.359225392341614E-001,-2.811290137469769E-002,6.361719965934753E-002,-5.278380513191223E-001,-8.359225392341614E-001,
7.067333333333334E+008,-2.078010328114033E-002,5.884875729680061E-002,-5.726927518844605E-001,-7.730383276939392E-001,-2.078010328114033E-002,5.884875729680061E-002,-5.726927518844605E-001,-7.730383276939392E-001,
7.151000000000000E+008,-1.912089996039867E-002,5.200313404202461E-002,-5.921610593795776E-001,-7.848680615425110E-001,-1.912089996039867E-002,5.200313404202461E-002,-5.921610593795776E-001,-7.848680615425110E-001,
7.234666666666666E+008,-2.152574248611927E-002,4.729308933019638E-002,-6.038727164268494E-001,-7.727775573730469E-001,-2.152574248611927E-002,4.729308933019638E-002,-6.038727164268494E-001,-7.727775573730469E-001,
7.318333333333334E+008,-2.740496955811977E-002,4.605973884463310E-002,-6.192067265510559E-001,-7.731673121452332E-001,-2.740496955811977E-002,4.605973884463310E-002,-6.192067265510559E-001,-7.731673121452332E-001,
7.402000000000000E+008,-3.315019607543945E-002,4.715213552117348E-002,-6.653716564178467E-001,-7.548629641532898E-001,-3.315019607543945E-002,4.715213552117348E-002,-6.653716564178467E-001,-7.548629641532898E-001,
7.485666666666666E+008,-3.862947598099709E-002,5.396043136715889E-002,-6.617263555526733E-001,-7.502530813217163E-001,-3.862947598099709E-002,5.396043136715889E-002,-6.617263555526733E-001,-7.502530813217163E-001,
7.569333333333334E+008,-3.871019557118416E-002,6.283830106258392E-002,-6.692723035812378E-001,-7.249296307563782E-001,-3.871019557118416E-002,6.283830106258392E-002,-6.692723035812378E-001,-7.249296307563782E-001,
7.653000000000000E+008,-3.245414048433304E-002,7.045733928680420E-002,-6.897484064102173E-001,-7.105996608734131E-001,-3.245414048433304E-002,7.045733928680420E-002,-6.897484064102173E-001,-7.105996608734131E-001,
7.736666666666666E+008,-2.456548996269703E-002,7.670944184064865E-002,-7.205028533935547E-001,-6.815294027328491E-001,-2.456548996269703E-002,7.670944184064865E-002,-7.205028533935547E-001,-6.815294027328491E-001,
7.820333333333334E+008,-1.377374399453402E-002,7.943856716156006E-002,-7.322000861167908E-001,-6.668015718460083E-001,-1.377374399453402E-002,7.943856716156006E-002,-7.322000861167908E-001,-6.668015718460083E-001,
7.904000000000000E+008,-2.748572034761310E-003,7.823914289474487E-002,-7.368272542953491E-001,-6.467514634132385E-001,-2.748572034761310E-003,7.823914289474487E-002,-7.368272542953491E-001,-6.467514634132385E-001,
7.987666666666666E+008,2.746666548773646E-003,7.304230332374573E-002,-7.718226313591003E-001,-6.241559386253357E-001,2.746666548773646E-003,7.304230332374573E-002,-7.718226313591003E-001,-6.241559386253357E-001,
8.071333333333334E+008,6.970407906919718E-003,6.842851638793945E-002,-7.773447036743164E-001,-6.165433526039124E-001,6.970407906919718E-003,6.842851638793945E-002,-7.773447036743164E-001,-6.165433526039124E-001,
8.155000000000000E+008,2.192402724176645E-003,6.254876405000687E-002,-7.979581952095032E-001,-5.923475027084351E-001,2.192402724176645E-003,6.254876405000687E-002,-7.979581952095032E-001,-5.923475027084351E-001,
8.238666666666666E+008,-2.193295658798888E-004,5.875510722398758E-002,-7.998081445693970E-001,-5.632945299148560E-001,-2.193295658798888E-004,5.875510722398758E-002,-7.998081445693970E-001,-5.632945299148560E-001,
8.322333333333334E+008,-6.177107337862253E-003,6.021438911557198E-002,-8.233044743537903E-001,-5.445964932441711E-001,-6.177107337862253E-003,6.021438911557198E-002,-8.233044743537903E-001,-5.445964932441711E-001,
8.406000000000000E+008,-1.001196447759867E-002,6.442371755838394E-002,-8.340588808059692E-001,-5.302512645721436E-001,-1.001196447759867E-002,6.442371755838394E-002,-8.340588808059692E-001,-5.302512645721436E-001,
8.489666666666668E+008,-1.246657781302929E-002,7.207465916872025E-002,-8.436605334281921E-001,-5.139531493186951E-001,-1.246657781302929E-002,7.207465916872025E-002,-8.436605334281921E-001,-5.139531493186951E-001,
8.573333333333334E+008,-9.438639506697655E-003,7.976569980382919E-002,-8.599153161048889E-001,-4.729871749877930E-001,-9.438639506697655E-003,7.976569980382919E-002,-8.599153161048889E-001,-4.729871749877930E-001,
8.657000000000000E+008,9.955461136996746E-004,8.675141632556915E-002,-8.764954805374146E-001,-4.521598219871521E-001,9.955461136996746E-004,8.675141632556915E-002,-8.764954805374146E-001,-4.521598219871521E-001,
8.740666666666668E+008,9.810386225581169E-003,8.889526128768921E-002,-8.737280964851379E-001,-4.417102932929993E-001,9.810386225581169E-003,8.889526128768921E-002,-8.737280964851379E-001,-4.417102932929993E-001,
8.824333333333334E+008,2.090057730674744E-002,8.790820091962814E-002,-8.904395103454590E-001,-4.253686666488648E-001,2.090057730674744E-002,8.790820091962814E-002,-8.904395103454590E-001,-4.253686666488648E-001,
8.908000000000000E+008,3.120813146233559E-002,8.263595402240753E-002,-8.906260728836060E-001,-3.937203586101532E-001,3.120813146233559E-002,8.263595402240753E-002,-8.906260728836060E-001,-3.937203586101532E-001,
8.991666666666668E+008,3.548009693622589E-002,7.561829686164856E-002,-9.060196876525879E-001,-3.684357106685638E-001,3.548009693622589E-002,7.561829686164856E-002,-9.060196876525879E-001,-3.684357106685638E-001,
9.075333333333334E+008,3.744832426309586E-002,6.872830539941788E-002,-9.338073134422302E-001,-3.445308804512024E-001,3.744832426309586E-002,6.872830539941788E-002,-9.338073134422302E-001,-3.445308804512024E-001,
9.159000000000000E+008,3.582140430808067E-002,6.611990183591843E-002,-9.413725733757019E-001,-3.176076114177704E-001,3.582140430808067E-002,6.611990183591843E-002,-9.413725733757019E-001,-3.176076114177704E-001,
9.242666666666668E+008,3.209353610873222E-002,6.269070506095886E-002,-9.464524984359741E-001,-3.038325011730194E-001,3.209353610873222E-002,6.269070506095886E-002,-9.464524984359741E-001,-3.038325011730194E-001,
9.326333333333334E+008,2.599721401929855E-002,6.381466984748840E-002,-9.661473035812378E-001,-2.791866362094879E-001,2.599721401929855E-002,6.381466984748840E-002,-9.661473035812378E-001,-2.791866362094879E-001,
9.410000000000000E+008,2.356999553740025E-002,6.780625134706497E-002,-9.571551084518433E-001,-2.467380613088608E-001,2.356999553740025E-002,6.780625134706497E-002,-9.571551084518433E-001,-2.467380613088608E-001,
9.493666666666668E+008,2.400066144764423E-002,7.418111711740494E-002,-9.586322903633118E-001,-2.281597256660461E-001,2.400066144764423E-002,7.418111711740494E-002,-9.586322903633118E-001,-2.281597256660461E-001,
9.577333333333334E+008,2.821911685168743E-002,8.181087672710419E-002,-9.732969403266907E-001,-2.034606784582138E-001,2.821911685168743E-002,8.181087672710419E-002,-9.732969403266907E-001,-2.034606784582138E-001,
9.661000000000000E+008,3.855906054377556E-002,8.849520981311798E-002,-9.716093540191650E-001,-1.810024380683899E-001,3.855906054377556E-002,8.849520981311798E-002,-9.716093540191650E-001,-1.810024380683899E-001,
9.744666666666668E+008,4.756674170494080E-002,8.736323565244675E-002,-9.739566445350647E-001,-1.566144675016403E-001,4.756674170494080E-002,8.736323565244675E-002,-9.739566445350647E-001,-1.566144675016403E-001,
9.828333333333334E+008,6.270507723093033E-002,8.283710479736328E-002,-9.790073037147522E-001,-1.346038281917572E-001,6.270507723093033E-002,8.283710479736328E-002,-9.790073037147522E-001,-1.346038281917572E-001,
9.912000000000000E+008,7.036191225051880E-002,7.606020569801331E-002,-9.761092662811279E-001,-1.067211776971817E-001,7.036191225051880E-002,7.606020569801331E-002,-9.761092662811279E-001,-1.067211776971817E-001,
9.995666666666668E+008,7.762502878904343E-002,6.536658853292465E-002,-9.916486740112305E-001,-6.853616982698441E-002,7.762502878904343E-002,6.536658853292465E-002,-9.916486740112305E-001,-6.853616982698441E-002,
1.007933333333333E+009,7.869165390729904E-002,5.585633963346481E-002,-9.894401431083679E-001,-5.702580884099007E-002,7.869165390729904E-002,5.585633963346481E-002,-9.894401431083679E-001,-5.702580884099007E-002,
1.016300000000000E+009,7.410015165805817E-002,4.921999946236610E-002,-9.936350584030151E-001,-2.949486114084721E-002,7.410015165805817E-002,4.921999946236610E-002,-9.936350584030151E-001,-2.949486114084721E-002,
1.024666666666667E+009,6.761606037616730E-002,4.264018312096596E-002,-9.930865168571472E-001,4.085199907422066E-003,6.761606037616730E-002,4.264018312096596E-002,-9.930865168571472E-001,4.085199907422066E-003,
1.033033333333333E+009,6.212368980050087E-002,4.472567886114121E-002,-9.933328628540039E-001,2.260223031044006E-002,6.212368980050087E-002,4.472567886114121E-002,-9.933328628540039E-001,2.260223031044006E-002,
1.041400000000000E+009,5.744633823633194E-002,4.971834644675255E-002,-9.765712618827820E-001,6.094658374786377E-002,5.744633823633194E-002,4.971834644675255E-002,-9.765712618827820E-001,6.094658374786377E-002,
1.049766666666667E+009,5.811725184321404E-002,5.729666352272034E-002,-9.914380311965942E-001,8.118245750665665E-002,5.811725184321404E-002,5.729666352272034E-002,-9.914380311965942E-001,8.118245750665665E-002,
1.058133333333333E+009,6.510314345359802E-002,6.252814829349518E-002,-9.821185469627380E-001,1.004363298416138E-001,6.510314345359802E-002,6.252814829349518E-002,-9.821185469627380E-001,1.004363298416138E-001,
1.066500000000000E+009,7.755646854639053E-002,6.506969034671783E-002,-9.889826774597168E-001,1.391549110412598E-001,7.755646854639053E-002,6.506969034671783E-002,-9.889826774597168E-001,1.391549110412598E-001,
1.074866666666667E+009,8.798252046108246E-002,6.177753582596779E-002,-9.683600664138794E-001,1.536167412996292E-001,8.798252046108246E-002,6.177753582596779E-002,-9.683600664138794E-001,1.536167412996292E-001,
1.083233333333334E+009,1.000256985425949E-001,4.904415830969811E-002,-9.680688977241516E-001,1.765598803758621E-001,1.000256985425949E-001,4.904415830969811E-002,-9.680688977241516E-001,1.765598803758621E-001,
1.091600000000000E+009,1.063052415847778E-001,3.754102438688278E-002,-9.583045840263367E-001,1.988804787397385E-001,1.063052415847778E-001,3.754102438688278E-002,-9.583045840263367E-001,1.988804787397385E-001,
1.099966666666667E+009,1.088540181517601E-001,2.200805209577084E-002,-9.621355533599854E-001,2.366554588079453E-001,1.088540181517601E-001,2.200805209577084E-002,-9.621355533599854E-001,2.366554588079453E-001,
1.108333333333334E+009,9.996513277292252E-002,1.050458103418350E-002,-9.394587874412537E-001,2.378835529088974E-001,9.996513277292252E-002,1.050458103418350E-002,-9.394587874412537E-001,2.378835529088974E-001,
1.116700000000000E+009,8.694476634263992E-002,8.298545144498348E-003,-9.385998845100403E-001,2.829189896583557E-001,8.694476634263992E-002,8.298545144498348E-003,-9.385998845100403E-001,2.829189896583557E-001,
1.125066666666667E+009,7.584476470947266E-002,8.408237248659134E-003,-9.431143403053284E-001,2.959417402744293E-001,7.584476470947266E-002,8.408237248659134E-003,-9.431143403053284E-001,2.959417402744293E-001,
1.133433333333334E+009,6.793952733278275E-002,1.914370805025101E-002,-9.449138045310974E-001,3.209457099437714E-001,6.793952733278275E-002,1.914370805025101E-002,-9.449138045310974E-001,3.209457099437714E-001,
1.141800000000000E+009,6.807676702737808E-002,2.940788120031357E-002,-9.165443778038025E-001,3.419193923473358E-001,6.807676702737808E-002,2.940788120031357E-002,-9.165443778038025E-001,3.419193923473358E-001,
1.150166666666667E+009,7.588704675436020E-002,4.224166646599770E-002,-8.980309367179871E-001,3.732705414295197E-001,7.588704675436020E-002,4.224166646599770E-002,-8.980309367179871E-001,3.732705414295197E-001,
1.158533333333334E+009,9.147714823484421E-002,4.711180180311203E-002,-8.968742489814758E-001,3.967349529266357E-001,9.147714823484421E-002,4.711180180311203E-002,-8.968742489814758E-001,3.967349529266357E-001,
1.166900000000000E+009,1.109495609998703E-001,4.327451437711716E-002,-8.881142139434815E-001,4.304231107234955E-001,1.109495609998703E-001,4.327451437711716E-002,-8.881142139434815E-001,4.304231107234955E-001,
1.175266666666667E+009,1.252223402261734E-001,2.811067923903465E-002,-8.759180307388306E-001,4.367297887802124E-001,1.252223402261734E-001,2.811067923903465E-002,-8.759180307388306E-001,4.367297887802124E-001,
1.183633333333334E+009,1.362849026918411E-001,9.757021442055702E-003,-8.631539344787598E-001,4.717105031013489E-001,1.362849026918411E-001,9.757021442055702E-003,-8.631539344787598E-001,4.717105031013489E-001,
1.192000000000000E+009,1.361360698938370E-001,-1.297677680850029E-002,-8.544842004776001E-001,4.773308336734772E-001,1.361360698938370E-001,-1.297677680850029E-002,-8.544842004776001E-001,4.773308336734772E-001,
1.200366666666667E+009,1.247120350599289E-001,-2.991266176104546E-002,-8.446227908134460E-001,5.070723295211792E-001,1.247120350599289E-001,-2.991266176104546E-002,-8.446227908134460E-001,5.070723295211792E-001,
1.208733333333334E+009,1.094450950622559E-001,-4.061288759112358E-002,-8.417443633079529E-001,5.239973664283752E-001,1.094450950622559E-001,-4.061288759112358E-002,-8.417443633079529E-001,5.239973664283752E-001,
1.217100000000000E+009,9.195794910192490E-002,-3.879159316420555E-002,-8.266282677650452E-001,5.433972477912903E-001,9.195794910192490E-002,-3.879159316420555E-002,-8.266282677650452E-001,5.433972477912903E-001,
1.225466666666667E+009,8.078767359256744E-002,-3.226028755307198E-002,-7.996883988380432E-001,5.695791244506836E-001,8.078767359256744E-002,-3.226028755307198E-002,-7.996883988380432E-001,5.695791244506836E-001,
1.233833333333334E+009,7.462993264198303E-002,-1.726293377578259E-002,-7.825050950050354E-001,5.897242426872253E-001,7.462993264198303E-002,-1.726293377578259E-002,-7.825050950050354E-001,5.897242426872253E-001,
1.242200000000000E+009,7.969532907009125E-002,-2.959560370072722E-003,-7.685554623603821E-001,6.039088368415833E-001,7.969532907009125E-002,-2.959560370072722E-003,-7.685554623603821E-001,6.039088368415833E-001,
1.250566666666667E+009,9.478212893009186E-002,3.425938310101628E-003,-7.398164272308350E-001,6.318196654319763E-001,9.478212893009186E-002,3.425938310101628E-003,-7.398164272308350E-001,6.318196654319763E-001,
1.258933333333334E+009,1.125769615173340E-001,3.241041558794677E-004,-7.467657923698425E-001,6.505722999572754E-001,1.125769615173340E-001,3.241041558794677E-004,-7.467657923698425E-001,6.505722999572754E-001,
1.267300000000000E+009,1.283613890409470E-001,-1.475048158317804E-002,-7.254753112792969E-001,6.618081927299500E-001,1.283613890409470E-001,-1.475048158317804E-002,-7.254753112792969E-001,6.618081927299500E-001,
1.275666666666667E+009,1.368167400360107E-001,-3.546681255102158E-002,-6.900327205657959E-001,6.846326589584351E-001,1.368167400360107E-001,-3.546681255102158E-002,-6.900327205657959E-001,6.846326589584351E-001,
1.284033333333334E+009,1.340618282556534E-001,-6.009483337402344E-002,-6.836886405944824E-001,7.027524709701538E-001,1.340618282556534E-001,-6.009483337402344E-002,-6.836886405944824E-001,7.027524709701538E-001,
1.292400000000000E+009,1.211656033992767E-001,-8.020570874214172E-002,-6.711066365242004E-001,7.140872478485107E-001,1.211656033992767E-001,-8.020570874214172E-002,-6.711066365242004E-001,7.140872478485107E-001,
1.300766666666667E+009,1.012463197112083E-001,-8.965080976486206E-002,-6.509824395179749E-001,7.311447858810425E-001,1.012463197112083E-001,-8.965080976486206E-002,-6.509824395179749E-001,7.311447858810425E-001,
1.309133333333334E+009,7.895720750093460E-002,-8.972453325986862E-002,-6.381497383117676E-001,7.478787899017334E-001,7.895720750093460E-002,-8.972453325986862E-002,-6.381497383117676E-001,7.478787899017334E-001,
1.317500000000000E+009,6.641745567321777E-002,-7.967795431613922E-002,-6.123296022415161E-001,7.667047977447510E-001,6.641745567321777E-002,-7.967795431613922E-002,-6.123296022415161E-001,7.667047977447510E-001,
1.325866666666667E+009,5.970248207449913E-002,-6.228780746459961E-002,-5.975257158279419E-001,7.787474393844605E-001,5.970248207449913E-002,-6.228780746459961E-002,-5.975257158279419E-001,7.787474393844605E-001,
1.334233333333334E+009,6.569387763738632E-002,-4.763478413224220E-002,-5.690975785255432E-001,8.006139993667603E-001,6.569387763738632E-002,-4.763478413224220E-002,-5.690975785255432E-001,8.006139993667603E-001,
1.342600000000000E+009,7.893829047679901E-002,-4.217391088604927E-002,-5.487551689147949E-001,8.201755881309509E-001,7.893829047679901E-002,-4.217391088604927E-002,-5.487551689147949E-001,8.201755881309509E-001,
1.350966666666667E+009,9.542784839868546E-002,-4.703563451766968E-002,-5.160338878631592E-001,8.423486948013306E-001,9.542784839868546E-002,-4.703563451766968E-002,-5.160338878631592E-001,8.423486948013306E-001,
1.359333333333334E+009,1.099759340286255E-001,-6.110143661499023E-002,-5.055950880050659E-001,8.411781787872315E-001,1.099759340286255E-001,-6.110143661499023E-002,-5.055950880050659E-001,8.411781787872315E-001,
1.367700000000000E+009,1.092516109347343E-001,-8.443257957696915E-002,-4.864962697029114E-001,8.484149575233460E-001,1.092516109347343E-001,-8.443257957696915E-002,-4.864962697029114E-001,8.484149575233460E-001,
1.376066666666667E+009,1.013571545481682E-001,-1.051617339253426E-001,-4.709915220737457E-001,8.634038567543030E-001,1.013571545481682E-001,-1.051617339253426E-001,-4.709915220737457E-001,8.634038567543030E-001,
1.384433333333334E+009,8.191691339015961E-002,-1.237185895442963E-001,-4.460245370864868E-001,8.850516080856323E-001,8.191691339015961E-002,-1.237185895442963E-001,-4.460245370864868E-001,8.850516080856323E-001,
1.392800000000000E+009,5.825973302125931E-002,-1.282445043325424E-001,-4.323463141918182E-001,8.807247281074524E-001,5.825973302125931E-002,-1.282445043325424E-001,-4.323463141918182E-001,8.807247281074524E-001,
1.401166666666667E+009,3.689930960536003E-002,-1.209905445575714E-001,-4.104203879833221E-001,8.979896306991577E-001,3.689930960536003E-002,-1.209905445575714E-001,-4.104203879833221E-001,8.979896306991577E-001,
1.409533333333334E+009,2.186133340001106E-002,-1.051998883485794E-001,-3.808711171150208E-001,9.109483957290649E-001,2.186133340001106E-002,-1.051998883485794E-001,-3.808711171150208E-001,9.109483957290649E-001,
1.417900000000000E+009,1.895704492926598E-002,-8.291766792535782E-002,-3.658772110939026E-001,9.059896469116211E-001,1.895704492926598E-002,-8.291766792535782E-002,-3.658772110939026E-001,9.059896469116211E-001,
1.426266666666667E+009,2.880594693124294E-002,-6.853438168764114E-002,-3.336542844772339E-001,9.290812015533447E-001,2.880594693124294E-002,-6.853438168764114E-002,-3.336542844772339E-001,9.290812015533447E-001,
1.434633333333334E+009,4.572062194347382E-002,-6.022201478481293E-002,-2.996033430099487E-001,9.395859837532044E-001,4.572062194347382E-002,-6.022201478481293E-002,-2.996033430099487E-001,9.395859837532044E-001,
1.443000000000000E+009,6.313505023717880E-002,-6.495880335569382E-002,-2.783125340938568E-001,9.426247477531433E-001,6.313505023717880E-002,-6.495880335569382E-002,-2.783125340938568E-001,9.426247477531433E-001,
1.451366666666667E+009,7.607593387365341E-002,-7.976724207401276E-002,-2.448457479476929E-001,9.458082318305969E-001,7.607593387365341E-002,-7.976724207401276E-002,-2.448457479476929E-001,9.458082318305969E-001,
1.459733333333334E+009,8.032972365617752E-002,-1.037383526563644E-001,-2.289949059486389E-001,9.450023770332336E-001,8.032972365617752E-002,-1.037383526563644E-001,-2.289949059486389E-001,9.450023770332336E-001,
