% Version 1.00
%
%freq[Hz],re:Trc1_S11,im:Trc1_S11,re:Trc2_S21,im:Trc2_S21,re:Trc3_S11,im:Trc3_S11,re:Trc4_S21,im:Trc4_S21,
6.900000000000000E+008,-1.669771969318390E-002,1.626777090132237E-002,-4.658869802951813E-001,-8.718379735946655E-001,-1.669771969318390E-002,1.626777090132237E-002,-4.658869802951813E-001,-8.718379735946655E-001,
6.983666666666666E+008,-7.167899049818516E-003,1.707133464515209E-002,-4.893176257610321E-001,-8.640869855880737E-001,-7.167899049818516E-003,1.707133464515209E-002,-4.893176257610321E-001,-8.640869855880737E-001,
7.067333333333334E+008,-5.107426550239325E-004,1.196021120995283E-002,-5.361135005950928E-001,-8.034394979476929E-001,-5.107426550239325E-004,1.196021120995283E-002,-5.361135005950928E-001,-8.034394979476929E-001,
7.151000000000000E+008,7.365740020759404E-005,3.889736486598849E-003,-5.537660121917725E-001,-8.181425333023071E-001,7.365740020759404E-005,3.889736486598849E-003,-5.537660121917725E-001,-8.181425333023071E-001,
7.234666666666666E+008,-3.151777200400829E-003,-2.031768206506968E-003,-5.655624270439148E-001,-8.069867491722107E-001,-3.151777200400829E-003,-2.031768206506968E-003,-5.655624270439148E-001,-8.069867491722107E-001,
7.318333333333334E+008,-1.036625541746616E-002,-5.452735349535942E-003,-5.807021260261536E-001,-8.061842918395996E-001,-1.036625541746616E-002,-5.452735349535942E-003,-5.807021260261536E-001,-8.061842918395996E-001,
7.402000000000000E+008,-1.743239164352417E-002,-5.889208987355232E-003,-6.254584193229675E-001,-7.913400530815125E-001,-1.743239164352417E-002,-5.889208987355232E-003,-6.254584193229675E-001,-7.913400530815125E-001,
7.485666666666666E+008,-2.545308694243431E-002,-8.852824685163796E-004,-6.239897608757019E-001,-7.881984710693359E-001,-2.545308694243431E-002,-8.852824685163796E-004,-6.239897608757019E-001,-7.881984710693359E-001,
7.569333333333334E+008,-2.800869382917881E-002,6.182238459587097E-003,-6.322642564773560E-001,-7.671484351158142E-001,-2.800869382917881E-002,6.182238459587097E-003,-6.322642564773560E-001,-7.671484351158142E-001,
7.653000000000000E+008,-2.465783432126045E-002,1.335346698760986E-002,-6.518166661262512E-001,-7.485635876655579E-001,-2.465783432126045E-002,1.335346698760986E-002,-6.518166661262512E-001,-7.485635876655579E-001,
7.736666666666666E+008,-1.842126809060574E-002,1.951963454484940E-002,-6.856478452682495E-001,-7.243458032608032E-001,-1.842126809060574E-002,1.951963454484940E-002,-6.856478452682495E-001,-7.243458032608032E-001,
7.820333333333334E+008,-1.019792538136244E-002,2.225428819656372E-002,-6.973313093185425E-001,-7.124599218368530E-001,-1.019792538136244E-002,2.225428819656372E-002,-6.973313093185425E-001,-7.124599218368530E-001,
7.904000000000000E+008,-3.872209053952247E-004,2.119384892284870E-002,-7.026354670524597E-001,-6.916293501853943E-001,-3.872209053952247E-004,2.119384892284870E-002,-7.026354670524597E-001,-6.916293501853943E-001,
7.987666666666666E+008,4.346635192632675E-003,1.579165644943714E-002,-7.376549839973450E-001,-6.717590093612671E-001,4.346635192632675E-003,1.579165644943714E-002,-7.376549839973450E-001,-6.717590093612671E-001,
8.071333333333334E+008,7.189557421952486E-003,1.047710143029690E-002,-7.431675195693970E-001,-6.607216596603394E-001,7.189557421952486E-003,1.047710143029690E-002,-7.431675195693970E-001,-6.607216596603394E-001,
8.155000000000000E+008,1.667354139499366E-003,3.692141966894269E-003,-7.666348814964294E-001,-6.407164931297302E-001,1.667354139499366E-003,3.692141966894269E-003,-7.666348814964294E-001,-6.407164931297302E-001,
8.238666666666666E+008,-2.885609399527311E-003,-8.112729410640895E-004,-7.684516310691834E-001,-6.121415495872498E-001,-2.885609399527311E-003,-8.112729410640895E-004,-7.684516310691834E-001,-6.121415495872498E-001,
8.322333333333334E+008,-1.086252648383379E-002,-1.043578842654824E-003,-7.912580370903015E-001,-5.940037369728088E-001,-1.086252648383379E-002,-1.043578842654824E-003,-7.912580370903015E-001,-5.940037369728088E-001,
8.406000000000000E+008,-1.795019023120403E-002,2.554904669523239E-003,-8.026058673858643E-001,-5.825450420379639E-001,-1.795019023120403E-002,2.554904669523239E-003,-8.026058673858643E-001,-5.825450420379639E-001,
8.489666666666668E+008,-2.266437932848930E-002,8.930474519729614E-003,-8.133730292320252E-001,-5.681080818176270E-001,-2.266437932848930E-002,8.930474519729614E-003,-8.133730292320252E-001,-5.681080818176270E-001,
8.573333333333334E+008,-2.195695042610169E-002,1.675546355545521E-002,-8.325935602188110E-001,-5.287020206451416E-001,-2.195695042610169E-002,1.675546355545521E-002,-8.325935602188110E-001,-5.287020206451416E-001,
8.657000000000000E+008,-1.573823578655720E-002,2.351675368845463E-002,-8.504019379615784E-001,-5.097092390060425E-001,-1.573823578655720E-002,2.351675368845463E-002,-8.504019379615784E-001,-5.097092390060425E-001,
8.740666666666668E+008,-8.828797377645969E-003,2.670554630458355E-002,-8.491853475570679E-001,-4.981934428215027E-001,-8.828797377645969E-003,2.670554630458355E-002,-8.491853475570679E-001,-4.981934428215027E-001,
8.824333333333334E+008,5.279624019749463E-004,2.654026262462139E-002,-8.671576976776123E-001,-4.839155375957489E-001,5.279624019749463E-004,2.654026262462139E-002,-8.671576976776123E-001,-4.839155375957489E-001,
8.908000000000000E+008,8.991320617496967E-003,2.227617055177689E-002,-8.691709041595459E-001,-4.522566199302673E-001,8.991320617496967E-003,2.227617055177689E-002,-8.691709041595459E-001,-4.522566199302673E-001,
8.991666666666668E+008,1.259692944586277E-002,1.582146994769573E-002,-8.849822282791138E-001,-4.258429408073425E-001,1.259692944586277E-002,1.582146994769573E-002,-8.849822282791138E-001,-4.258429408073425E-001,
9.075333333333334E+008,1.223410852253437E-002,8.875181898474693E-003,-9.155407547950745E-001,-4.088309407234192E-001,1.223410852253437E-002,8.875181898474693E-003,-9.155407547950745E-001,-4.088309407234192E-001,
9.159000000000000E+008,8.696184493601322E-003,6.139287725090981E-003,-9.217201471328735E-001,-3.805042207241058E-001,8.696184493601322E-003,6.139287725090981E-003,-9.217201471328735E-001,-3.805042207241058E-001,
9.242666666666668E+008,2.737383358180523E-003,2.805203665047884E-003,-9.282866716384888E-001,-3.670253753662109E-001,2.737383358180523E-003,2.805203665047884E-003,-9.282866716384888E-001,-3.670253753662109E-001,
9.326333333333334E+008,-5.792916752398014E-003,3.426348557695746E-003,-9.497495293617249E-001,-3.446566164493561E-001,-5.792916752398014E-003,3.426348557695746E-003,-9.497495293617249E-001,-3.446566164493561E-001,
9.410000000000000E+008,-1.079436670988798E-002,7.792224641889334E-003,-9.443643689155579E-001,-3.119395673274994E-001,-1.079436670988798E-002,7.792224641889334E-003,-9.443643689155579E-001,-3.119395673274994E-001,
9.493666666666668E+008,-1.364308129996061E-002,1.428656652569771E-002,-9.436970949172974E-001,-2.947340607643127E-001,-1.364308129996061E-002,1.428656652569771E-002,-9.436970949172974E-001,-2.947340607643127E-001,
9.577333333333334E+008,-1.256420742720366E-002,2.311792783439159E-002,-9.604101181030273E-001,-2.723731994628906E-001,-1.256420742720366E-002,2.311792783439159E-002,-9.604101181030273E-001,-2.723731994628906E-001,
9.661000000000000E+008,-5.989990662783384E-003,3.038426302373409E-002,-9.605783224105835E-001,-2.486709058284760E-001,-5.989990662783384E-003,3.038426302373409E-002,-9.605783224105835E-001,-2.486709058284760E-001,
9.744666666666668E+008,1.600453630089760E-003,3.184019774198532E-002,-9.681119918823242E-001,-2.250982075929642E-001,1.600453630089760E-003,3.184019774198532E-002,-9.681119918823242E-001,-2.250982075929642E-001,
9.828333333333334E+008,1.419779565185309E-002,2.978323213756084E-002,-9.715684056282044E-001,-2.044484764337540E-001,1.419779565185309E-002,2.978323213756084E-002,-9.715684056282044E-001,-2.044484764337540E-001,
9.912000000000000E+008,2.130207046866417E-002,2.399190142750740E-002,-9.728338122367859E-001,-1.770807206630707E-001,2.130207046866417E-002,2.399190142750740E-002,-9.728338122367859E-001,-1.770807206630707E-001,
9.995666666666668E+008,2.752083353698254E-002,1.610749401152134E-002,-9.903146624565125E-001,-1.403852254152298E-001,2.752083353698254E-002,1.610749401152134E-002,-9.903146624565125E-001,-1.403852254152298E-001,
1.007933333333333E+009,2.723933756351471E-002,7.073855493217707E-003,-9.879224896430969E-001,-1.259697824716568E-001,2.723933756351471E-002,7.073855493217707E-003,-9.879224896430969E-001,-1.259697824716568E-001,
1.016300000000000E+009,2.124891243875027E-002,1.357866567559540E-003,-9.911918640136719E-001,-9.920924156904221E-002,2.124891243875027E-002,1.357866567559540E-003,-9.911918640136719E-001,-9.920924156904221E-002,
1.024666666666667E+009,1.349014136940241E-002,-4.867569077759981E-003,-9.931796193122864E-001,-6.775807589292526E-002,1.349014136940241E-002,-4.867569077759981E-003,-9.931796193122864E-001,-6.775807589292526E-002,
1.033033333333333E+009,5.665328819304705E-003,-1.947041368111968E-003,-9.932968616485596E-001,-4.989078268408775E-002,5.665328819304705E-003,-1.947041368111968E-003,-9.932968616485596E-001,-4.989078268408775E-002,
1.041400000000000E+009,-1.695244223810732E-003,4.079027101397514E-003,-9.813253879547119E-001,-1.093089673668146E-002,-1.695244223810732E-003,4.079027101397514E-003,-9.813253879547119E-001,-1.093089673668146E-002,
1.049766666666667E+009,-4.283705260604620E-003,1.274393033236265E-002,-9.945457577705383E-001,7.200078573077917E-003,-4.283705260604620E-003,1.274393033236265E-002,-9.945457577705383E-001,7.200078573077917E-003,
1.058133333333333E+009,-4.125619889236987E-004,2.020620927214623E-002,-9.901780486106873E-001,2.498450689017773E-002,-4.125619889236987E-004,2.020620927214623E-002,-9.901780486106873E-001,2.498450689017773E-002,
1.066500000000000E+009,8.504991419613361E-003,2.568481117486954E-002,-9.996569752693176E-001,6.304646283388138E-002,8.504991419613361E-003,2.568481117486954E-002,-9.996569752693176E-001,6.304646283388138E-002,
1.074866666666667E+009,1.874140463769436E-002,2.488269843161106E-002,-9.832313656806946E-001,8.132707327604294E-002,1.874140463769436E-002,2.488269843161106E-002,-9.832313656806946E-001,8.132707327604294E-002,
1.083233333333334E+009,2.948489040136337E-002,1.535215973854065E-002,-9.828772544860840E-001,1.029167696833611E-001,2.948489040136337E-002,1.535215973854065E-002,-9.828772544860840E-001,1.029167696833611E-001,
1.091600000000000E+009,3.599145263433456E-002,5.888129584491253E-003,-9.753596782684326E-001,1.251947283744812E-001,3.599145263433456E-002,5.888129584491253E-003,-9.753596782684326E-001,1.251947283744812E-001,
1.099966666666667E+009,3.714130073785782E-002,-7.572989445179701E-003,-9.805464744567871E-001,1.628514826297760E-001,3.714130073785782E-002,-7.572989445179701E-003,-9.805464744567871E-001,1.628514826297760E-001,
1.108333333333334E+009,2.859255857765675E-002,-1.819554902613163E-002,-9.579527974128723E-001,1.671859025955200E-001,2.859255857765675E-002,-1.819554902613163E-002,-9.579527974128723E-001,1.671859025955200E-001,
1.116700000000000E+009,1.594290323555470E-002,-1.851752959191799E-002,-9.606901407241821E-001,2.117116153240204E-001,1.594290323555470E-002,-1.851752959191799E-002,-9.606901407241821E-001,2.117116153240204E-001,
1.125066666666667E+009,2.108089625835419E-003,-1.857060939073563E-002,-9.661153554916382E-001,2.204960435628891E-001,2.108089625835419E-003,-1.857060939073563E-002,-9.661153554916382E-001,2.204960435628891E-001,
1.133433333333334E+009,-8.517682552337647E-003,-6.405404768884182E-003,-9.677596688270569E-001,2.447897642850876E-001,-8.517682552337647E-003,-6.405404768884182E-003,-9.677596688270569E-001,2.447897642850876E-001,
1.141800000000000E+009,-1.153031736612320E-002,5.996871739625931E-003,-9.416371583938599E-001,2.660205960273743E-001,-1.153031736612320E-002,5.996871739625931E-003,-9.416371583938599E-001,2.660205960273743E-001,
1.150166666666667E+009,-7.563178893178701E-003,2.223570458590984E-002,-9.281764030456543E-001,2.977553009986877E-001,-7.563178893178701E-003,2.223570458590984E-002,-9.281764030456543E-001,2.977553009986877E-001,
1.158533333333334E+009,4.950387869030237E-003,3.143668174743652E-002,-9.317132830619812E-001,3.220070898532867E-001,4.950387869030237E-003,3.143668174743652E-002,-9.317132830619812E-001,3.220070898532867E-001,
1.166900000000000E+009,2.294336818158627E-002,3.264671191573143E-002,-9.246739149093628E-001,3.552695214748383E-001,2.294336818158627E-002,3.264671191573143E-002,-9.246739149093628E-001,3.552695214748383E-001,
1.175266666666667E+009,3.860878571867943E-002,2.289998903870583E-002,-9.153570532798767E-001,3.615724444389343E-001,3.860878571867943E-002,2.289998903870583E-002,-9.153570532798767E-001,3.615724444389343E-001,
1.183633333333334E+009,5.069283396005631E-002,8.079799823462963E-003,-9.069373011589050E-001,4.003716409206390E-001,5.069283396005631E-002,8.079799823462963E-003,-9.069373011589050E-001,4.003716409206390E-001,
1.192000000000000E+009,5.288194492459297E-002,-1.233738567680121E-002,-8.969254493713379E-001,4.082621932029724E-001,5.288194492459297E-002,-1.233738567680121E-002,-8.969254493713379E-001,4.082621932029724E-001,
1.200366666666667E+009,4.349222779273987E-002,-2.826739288866520E-002,-8.891808390617371E-001,4.362577795982361E-001,4.349222779273987E-002,-2.826739288866520E-002,-8.891808390617371E-001,4.362577795982361E-001,
1.208733333333334E+009,2.873085439205170E-002,-3.912102058529854E-002,-8.841999173164368E-001,4.530895352363586E-001,2.873085439205170E-002,-3.912102058529854E-002,-8.841999173164368E-001,4.530895352363586E-001,
1.217100000000000E+009,1.021127495914698E-002,-3.647553920745850E-002,-8.702209591865540E-001,4.730708599090576E-001,1.021127495914698E-002,-3.647553920745850E-002,-8.702209591865540E-001,4.730708599090576E-001,
1.225466666666667E+009,-2.372688613831997E-003,-2.815651707351208E-002,-8.474028110504150E-001,5.010746717453003E-001,-2.372688613831997E-003,-2.815651707351208E-002,-8.474028110504150E-001,5.010746717453003E-001,
1.233833333333334E+009,-1.116435881704092E-002,-1.191359478980303E-002,-8.326871395111084E-001,5.198195576667786E-001,-1.116435881704092E-002,-1.191359478980303E-002,-8.326871395111084E-001,5.198195576667786E-001,
1.242200000000000E+009,-9.927441366016865E-003,6.181255448609591E-003,-8.198801875114441E-001,5.325922966003418E-001,-9.927441366016865E-003,6.181255448609591E-003,-8.198801875114441E-001,5.325922966003418E-001,
1.250566666666667E+009,2.964647486805916E-003,1.807990670204163E-002,-7.958926558494568E-001,5.626257658004761E-001,2.964647486805916E-003,1.807990670204163E-002,-7.958926558494568E-001,5.626257658004761E-001,
1.258933333333334E+009,2.038426510989666E-002,2.153822593390942E-002,-8.076537251472473E-001,5.819436907768250E-001,2.038426510989666E-002,2.153822593390942E-002,-8.076537251472473E-001,5.819436907768250E-001,
1.267300000000000E+009,3.835755214095116E-002,1.265120133757591E-002,-7.881770730018616E-001,5.959671735763550E-001,3.835755214095116E-002,1.265120133757591E-002,-7.881770730018616E-001,5.959671735763550E-001,
1.275666666666667E+009,4.957954958081245E-002,-4.996866453438997E-003,-7.563869357109070E-001,6.218580007553101E-001,4.957954958081245E-002,-4.996866453438997E-003,-7.563869357109070E-001,6.218580007553101E-001,
1.284033333333334E+009,5.053404346108437E-002,-2.671966515481472E-002,-7.505477070808411E-001,6.420779228210449E-001,5.053404346108437E-002,-2.671966515481472E-002,-7.505477070808411E-001,6.420779228210449E-001,
1.292400000000000E+009,4.079945757985115E-002,-4.569320380687714E-002,-7.392538189888001E-001,6.578980088233948E-001,4.079945757985115E-002,-4.569320380687714E-002,-7.392538189888001E-001,6.578980088233948E-001,
1.300766666666667E+009,2.306976355612278E-002,-5.625072121620178E-002,-7.165335416793823E-001,6.751399636268616E-001,2.306976355612278E-002,-5.625072121620178E-002,-7.165335416793823E-001,6.751399636268616E-001,
1.309133333333334E+009,1.391626079566777E-003,-5.590530484914780E-002,-7.053822875022888E-001,6.917955279350281E-001,1.391626079566777E-003,-5.590530484914780E-002,-7.053822875022888E-001,6.917955279350281E-001,
1.317500000000000E+009,-1.390526816248894E-002,-4.499712586402893E-002,-6.823411583900452E-001,7.074002623558044E-001,-1.390526816248894E-002,-4.499712586402893E-002,-6.823411583900452E-001,7.074002623558044E-001,
1.325866666666667E+009,-2.152052894234657E-002,-2.563173323869705E-002,-6.689281463623047E-001,7.222843170166016E-001,-2.152052894234657E-002,-2.563173323869705E-002,-6.689281463623047E-001,7.222843170166016E-001,
1.334233333333334E+009,-1.740233041346073E-002,-6.999230477958918E-003,-6.428848505020142E-001,7.445631623268127E-001,-1.740233041346073E-002,-6.999230477958918E-003,-6.428848505020142E-001,7.445631623268127E-001,
1.342600000000000E+009,-5.341525655239821E-003,4.408353473991156E-003,-6.261090636253357E-001,7.638863921165466E-001,-5.341525655239821E-003,4.408353473991156E-003,-6.261090636253357E-001,7.638863921165466E-001,
1.350966666666667E+009,1.233706716448069E-002,6.042479537427425E-003,-5.986400246620178E-001,7.905991673469544E-001,1.233706716448069E-002,6.042479537427425E-003,-5.986400246620178E-001,7.905991673469544E-001,
1.359333333333334E+009,2.836759202182293E-002,-3.167020389810205E-003,-5.872421264648438E-001,7.937514781951904E-001,2.836759202182293E-002,-3.167020389810205E-003,-5.872421264648438E-001,7.937514781951904E-001,
1.367700000000000E+009,3.330631926655769E-002,-2.310821041464806E-002,-5.706177949905396E-001,8.033741712570190E-001,3.330631926655769E-002,-2.310821041464806E-002,-5.706177949905396E-001,8.033741712570190E-001,
1.376066666666667E+009,3.050298430025578E-002,-4.230920970439911E-002,-5.558539628982544E-001,8.214597105979919E-001,3.050298430025578E-002,-4.230920970439911E-002,-5.558539628982544E-001,8.214597105979919E-001,
1.384433333333334E+009,1.480134390294552E-002,-6.106945127248764E-002,-5.317829847335815E-001,8.444904088973999E-001,1.480134390294552E-002,-6.106945127248764E-002,-5.317829847335815E-001,8.444904088973999E-001,
1.392800000000000E+009,-6.658011581748724E-003,-6.663648784160614E-002,-5.177242755889893E-001,8.400212526321411E-001,-6.658011581748724E-003,-6.663648784160614E-002,-5.177242755889893E-001,8.400212526321411E-001,
1.401166666666667E+009,-2.841274067759514E-002,-6.022252887487412E-002,-4.950541555881500E-001,8.598247170448303E-001,-2.841274067759514E-002,-6.022252887487412E-002,-4.950541555881500E-001,8.598247170448303E-001,
1.409533333333334E+009,-4.416034370660782E-002,-4.510771483182907E-002,-4.649964869022369E-001,8.719224929809570E-001,-4.416034370660782E-002,-4.510771483182907E-002,-4.649964869022369E-001,8.719224929809570E-001,
1.417900000000000E+009,-4.896659404039383E-002,-2.029842138290405E-002,-4.523347020149231E-001,8.669830560684204E-001,-4.896659404039383E-002,-2.029842138290405E-002,-4.523347020149231E-001,8.669830560684204E-001,
1.426266666666667E+009,-4.031628370285034E-002,-9.262819075956941E-004,-4.229120910167694E-001,8.938955068588257E-001,-4.031628370285034E-002,-9.262819075956941E-004,-4.229120910167694E-001,8.938955068588257E-001,
1.434633333333334E+009,-2.334314584732056E-002,1.320076361298561E-002,-3.918538987636566E-001,9.050645828247070E-001,-2.334314584732056E-002,1.320076361298561E-002,-3.918538987636566E-001,9.050645828247070E-001,
1.443000000000000E+009,-3.037897637113929E-003,1.572837866842747E-002,-3.770653009414673E-001,9.111615419387817E-001,-3.037897637113929E-003,1.572837866842747E-002,-3.770653009414673E-001,9.111615419387817E-001,
1.451366666666667E+009,1.431533973664045E-002,6.252872757613659E-003,-3.468954563140869E-001,9.171889424324036E-001,1.431533973664045E-002,6.252872757613659E-003,-3.468954563140869E-001,9.171889424324036E-001,
1.459733333333334E+009,2.413607388734818E-002,-1.416661497205496E-002,-3.300184309482575E-001,9.238005876541138E-001,2.413607388734818E-002,-1.416661497205496E-002,-3.300184309482575E-001,9.238005876541138E-001,
