% Version 1.00
%
%freq[Hz],re:Trc1_S11,im:Trc1_S11,re:Trc2_S21,im:Trc2_S21,re:Trc3_S11,im:Trc3_S11,re:Trc4_S21,im:Trc4_S21,
6.900000000000000E+008,-6.324601918458939E-002,1.798603869974613E-002,-5.053468942642212E-001,-8.462880849838257E-001,-6.324601918458939E-002,1.798603869974613E-002,-5.053468942642212E-001,-8.462880849838257E-001,
6.983666666666666E+008,-5.455756187438965E-002,1.852521486580372E-002,-5.286709070205689E-001,-8.364029526710510E-001,-5.455756187438965E-002,1.852521486580372E-002,-5.286709070205689E-001,-8.364029526710510E-001,
7.067333333333334E+008,-4.891531169414520E-002,1.330629456788302E-002,-5.731148123741150E-001,-7.744125723838806E-001,-4.891531169414520E-002,1.330629456788302E-002,-5.731148123741150E-001,-7.744125723838806E-001,
7.151000000000000E+008,-4.947055503726006E-002,6.396051496267319E-003,-5.924689173698425E-001,-7.876899242401123E-001,-4.947055503726006E-002,6.396051496267319E-003,-5.924689173698425E-001,-7.876899242401123E-001,
7.234666666666666E+008,-5.360230058431625E-002,1.746492227539420E-003,-6.047949194908142E-001,-7.750214934349060E-001,-5.360230058431625E-002,1.746492227539420E-003,-6.047949194908142E-001,-7.750214934349060E-001,
7.318333333333334E+008,-6.170183792710304E-002,1.936006883624941E-004,-6.194353103637695E-001,-7.733705043792725E-001,-6.170183792710304E-002,1.936006883624941E-004,-6.194353103637695E-001,-7.733705043792725E-001,
7.402000000000000E+008,-6.878729909658432E-002,1.369401230476797E-003,-6.642851829528809E-001,-7.551653981208801E-001,-6.878729909658432E-002,1.369401230476797E-003,-6.642851829528809E-001,-7.551653981208801E-001,
7.485666666666666E+008,-7.672774791717529E-002,8.425021544098854E-003,-6.625621318817139E-001,-7.508020401000977E-001,-7.672774791717529E-002,8.425021544098854E-003,-6.625621318817139E-001,-7.508020401000977E-001,
7.569333333333334E+008,-7.893709838390350E-002,1.682378910481930E-002,-6.685456633567810E-001,-7.296417951583862E-001,-7.893709838390350E-002,1.682378910481930E-002,-6.685456633567810E-001,-7.296417951583862E-001,
7.653000000000000E+008,-7.512471079826355E-002,2.515333890914917E-002,-6.871721744537354E-001,-7.101598978042603E-001,-7.512471079826355E-002,2.515333890914917E-002,-6.871721744537354E-001,-7.101598978042603E-001,
7.736666666666666E+008,-6.891185045242310E-002,3.109391219913960E-002,-7.200948596000671E-001,-6.842503547668457E-001,-6.891185045242310E-002,3.109391219913960E-002,-7.200948596000671E-001,-6.842503547668457E-001,
7.820333333333334E+008,-6.095691025257111E-002,3.432773426175118E-002,-7.322272658348084E-001,-6.719620227813721E-001,-6.095691025257111E-002,3.432773426175118E-002,-7.322272658348084E-001,-6.719620227813721E-001,
7.904000000000000E+008,-5.194362252950668E-002,3.362761437892914E-002,-7.368937134742737E-001,-6.508514285087585E-001,-5.194362252950668E-002,3.362761437892914E-002,-7.368937134742737E-001,-6.508514285087585E-001,
7.987666666666666E+008,-4.816277697682381E-002,2.837545797228813E-002,-7.716326117515564E-001,-6.289771199226379E-001,-4.816277697682381E-002,2.837545797228813E-002,-7.716326117515564E-001,-6.289771199226379E-001,
8.071333333333334E+008,-4.629306495189667E-002,2.403764240443707E-002,-7.761700153350830E-001,-6.170883774757385E-001,-4.629306495189667E-002,2.403764240443707E-002,-7.761700153350830E-001,-6.170883774757385E-001,
8.155000000000000E+008,-5.304934084415436E-002,1.815834827721119E-002,-7.994917035102844E-001,-5.941427946090698E-001,-5.304934084415436E-002,1.815834827721119E-002,-7.994917035102844E-001,-5.941427946090698E-001,
8.238666666666666E+008,-5.781487375497818E-002,1.589746400713921E-002,-8.002927899360657E-001,-5.651644468307495E-001,-5.781487375497818E-002,1.589746400713921E-002,-8.002927899360657E-001,-5.651644468307495E-001,
8.322333333333334E+008,-6.591149419546127E-002,1.750019565224648E-002,-8.215280175209045E-001,-5.453460812568665E-001,-6.591149419546127E-002,1.750019565224648E-002,-8.215280175209045E-001,-5.453460812568665E-001,
8.406000000000000E+008,-7.222142070531845E-002,2.327433414757252E-002,-8.317947387695313E-001,-5.322622656822205E-001,-7.222142070531845E-002,2.327433414757252E-002,-8.317947387695313E-001,-5.322622656822205E-001,
8.489666666666668E+008,-7.704792171716690E-002,3.094043396413326E-002,-8.417133688926697E-001,-5.173317790031433E-001,-7.704792171716690E-002,3.094043396413326E-002,-8.417133688926697E-001,-5.173317790031433E-001,
8.573333333333334E+008,-7.530240714550018E-002,3.929526358842850E-002,-8.586477637290955E-001,-4.766980409622192E-001,-7.530240714550018E-002,3.929526358842850E-002,-8.586477637290955E-001,-4.766980409622192E-001,
8.657000000000000E+008,-6.871401518583298E-002,4.824722558259964E-002,-8.749005794525147E-001,-4.565513134002686E-001,-6.871401518583298E-002,4.824722558259964E-002,-8.749005794525147E-001,-4.565513134002686E-001,
8.740666666666668E+008,-6.143199652433395E-002,5.148709937930107E-002,-8.739553093910217E-001,-4.455767273902893E-001,-6.143199652433395E-002,5.148709937930107E-002,-8.739553093910217E-001,-4.455767273902893E-001,
8.824333333333334E+008,-5.233339220285416E-002,5.139204114675522E-002,-8.914369344711304E-001,-4.296373426914215E-001,-5.233339220285416E-002,5.139204114675522E-002,-8.914369344711304E-001,-4.296373426914215E-001,
8.908000000000000E+008,-4.434648901224136E-002,4.764812812209129E-002,-8.920373320579529E-001,-3.972865045070648E-001,-4.434648901224136E-002,4.764812812209129E-002,-8.920373320579529E-001,-3.972865045070648E-001,
8.991666666666668E+008,-4.152302071452141E-002,4.140747711062431E-002,-9.073819518089294E-001,-3.700438439846039E-001,-4.152302071452141E-002,4.140747711062431E-002,-9.073819518089294E-001,-3.700438439846039E-001,
9.075333333333334E+008,-4.325914755463600E-002,3.620480000972748E-002,-9.374104142189026E-001,-3.498047590255737E-001,-4.325914755463600E-002,3.620480000972748E-002,-9.374104142189026E-001,-3.498047590255737E-001,
9.159000000000000E+008,-4.727748781442642E-002,3.540506958961487E-002,-9.415960907936096E-001,-3.217180669307709E-001,-4.727748781442642E-002,3.540506958961487E-002,-9.415960907936096E-001,-3.217180669307709E-001,
9.242666666666668E+008,-5.317188054323196E-002,3.406087309122086E-002,-9.469807147979736E-001,-3.053507208824158E-001,-5.317188054323196E-002,3.406087309122086E-002,-9.469807147979736E-001,-3.053507208824158E-001,
9.326333333333334E+008,-6.151385605335236E-002,3.652316704392433E-002,-9.671409726142883E-001,-2.818825542926788E-001,-6.151385605335236E-002,3.652316704392433E-002,-9.671409726142883E-001,-2.818825542926788E-001,
9.410000000000000E+008,-6.562189012765884E-002,4.265144094824791E-002,-9.589763283729553E-001,-2.485865950584412E-001,-6.562189012765884E-002,4.265144094824791E-002,-9.589763283729553E-001,-2.485865950584412E-001,
9.493666666666668E+008,-6.742017716169357E-002,5.107580125331879E-002,-9.577275514602661E-001,-2.310003936290741E-001,-6.742017716169357E-002,5.107580125331879E-002,-9.577275514602661E-001,-2.310003936290741E-001,
9.577333333333334E+008,-6.507262587547302E-002,6.053385511040688E-002,-9.718328714370728E-001,-2.085415124893189E-001,-6.507262587547302E-002,6.053385511040688E-002,-9.718328714370728E-001,-2.085415124893189E-001,
9.661000000000000E+008,-5.785963311791420E-002,6.943003833293915E-002,-9.702177643775940E-001,-1.838634610176086E-001,-5.785963311791420E-002,6.943003833293915E-002,-9.702177643775940E-001,-1.838634610176086E-001,
9.744666666666668E+008,-4.916348680853844E-002,7.047563046216965E-002,-9.761115908622742E-001,-1.604266315698624E-001,-4.916348680853844E-002,7.047563046216965E-002,-9.761115908622742E-001,-1.604266315698624E-001,
9.828333333333334E+008,-3.677263855934143E-002,6.851078569889069E-002,-9.795584678649902E-001,-1.394652724266052E-001,-3.677263855934143E-002,6.851078569889069E-002,-9.795584678649902E-001,-1.394652724266052E-001,
9.912000000000000E+008,-3.064697049558163E-002,6.296908855438232E-002,-9.795753955841065E-001,-1.114934608340263E-001,-3.064697049558163E-002,6.296908855438232E-002,-9.795753955841065E-001,-1.114934608340263E-001,
9.995666666666668E+008,-2.472537383437157E-002,5.572350323200226E-002,-9.957334995269775E-001,-7.318866252899170E-002,-2.472537383437157E-002,5.572350323200226E-002,-9.957334995269775E-001,-7.318866252899170E-002,
1.007933333333333E+009,-2.636003866791725E-002,4.806790500879288E-002,-9.924145936965942E-001,-5.804226174950600E-002,-2.636003866791725E-002,4.806790500879288E-002,-9.924145936965942E-001,-5.804226174950600E-002,
1.016300000000000E+009,-3.295100852847099E-002,4.438043758273125E-002,-9.930826425552368E-001,-2.992384880781174E-002,-3.295100852847099E-002,4.438043758273125E-002,-9.930826425552368E-001,-2.992384880781174E-002,
1.024666666666667E+009,-4.111934080719948E-002,4.042170569300652E-002,-9.933249950408936E-001,2.921191276982427E-003,-4.111934080719948E-002,4.042170569300652E-002,-9.933249950408936E-001,2.921191276982427E-003,
1.033033333333333E+009,-4.793815314769745E-002,4.569284245371819E-002,-9.915481209754944E-001,2.159196510910988E-002,-4.793815314769745E-002,4.569284245371819E-002,-9.915481209754944E-001,2.159196510910988E-002,
1.041400000000000E+009,-5.371056497097015E-002,5.371053516864777E-002,-9.763727784156799E-001,5.981445685029030E-002,-5.371056497097015E-002,5.371053516864777E-002,-9.763727784156799E-001,5.981445685029030E-002,
1.049766666666667E+009,-5.439260229468346E-002,6.430671364068985E-002,-9.874225854873657E-001,7.859841734170914E-002,-5.439260229468346E-002,6.430671364068985E-002,-9.874225854873657E-001,7.859841734170914E-002,
1.058133333333333E+009,-4.879004880785942E-002,7.250761240720749E-002,-9.826155900955200E-001,9.599044173955917E-002,-4.879004880785942E-002,7.250761240720749E-002,-9.826155900955200E-001,9.599044173955917E-002,
1.066500000000000E+009,-3.849067538976669E-002,7.918068021535873E-002,-9.894780516624451E-001,1.339134275913239E-001,-3.849067538976669E-002,7.918068021535873E-002,-9.894780516624451E-001,1.339134275913239E-001,
1.074866666666667E+009,-2.795823290944099E-002,7.717642933130264E-002,-9.714232683181763E-001,1.516069024801254E-001,-2.795823290944099E-002,7.717642933130264E-002,-9.714232683181763E-001,1.516069024801254E-001,
1.083233333333334E+009,-1.726033724844456E-002,6.796514242887497E-002,-9.704467654228210E-001,1.734191030263901E-001,-1.726033724844456E-002,6.796514242887497E-002,-9.704467654228210E-001,1.734191030263901E-001,
1.091600000000000E+009,-1.241554040461779E-002,5.885219201445580E-002,-9.619930982589722E-001,1.964693516492844E-001,-1.241554040461779E-002,5.885219201445580E-002,-9.619930982589722E-001,1.964693516492844E-001,
1.099966666666667E+009,-1.272094808518887E-002,4.796690493822098E-002,-9.647141098976135E-001,2.352149933576584E-001,-1.272094808518887E-002,4.796690493822098E-002,-9.647141098976135E-001,2.352149933576584E-001,
1.108333333333334E+009,-2.265181578695774E-002,3.945747017860413E-002,-9.426127672195435E-001,2.385796010494232E-001,-2.265181578695774E-002,3.945747017860413E-002,-9.426127672195435E-001,2.385796010494232E-001,
1.116700000000000E+009,-3.374886885285378E-002,4.133508354425430E-002,-9.410107135772705E-001,2.864022254943848E-001,-3.374886885285378E-002,4.133508354425430E-002,-9.410107135772705E-001,2.864022254943848E-001,
1.125066666666667E+009,-4.753155633807182E-002,4.507202655076981E-002,-9.439036250114441E-001,2.964737713336945E-001,-4.753155633807182E-002,4.507202655076981E-002,-9.439036250114441E-001,2.964737713336945E-001,
1.133433333333334E+009,-5.527196824550629E-002,5.986090376973152E-002,-9.419803619384766E-001,3.200898766517639E-001,-5.527196824550629E-002,5.986090376973152E-002,-9.419803619384766E-001,3.200898766517639E-001,
1.141800000000000E+009,-5.490471795201302E-002,7.366530597209930E-002,-9.130526185035706E-001,3.394293487071991E-001,-5.490471795201302E-002,7.366530597209930E-002,-9.130526185035706E-001,3.394293487071991E-001,
1.150166666666667E+009,-4.774112626910210E-002,9.076397866010666E-002,-8.969745635986328E-001,3.694088160991669E-001,-4.774112626910210E-002,9.076397866010666E-002,-8.969745635986328E-001,3.694088160991669E-001,
1.158533333333334E+009,-3.281599655747414E-002,9.870731830596924E-002,-8.980754017829895E-001,3.926135897636414E-001,-3.281599655747414E-002,9.870731830596924E-002,-8.980754017829895E-001,3.926135897636414E-001,
1.166900000000000E+009,-1.402523089200258E-002,9.895704686641693E-002,-8.901425004005432E-001,4.240446388721466E-001,-1.402523089200258E-002,9.895704686641693E-002,-8.901425004005432E-001,4.240446388721466E-001,
1.175266666666667E+009,1.854086178354919E-003,8.760943263769150E-002,-8.815580010414124E-001,4.301662147045136E-001,1.854086178354919E-003,8.760943263769150E-002,-8.815580010414124E-001,4.301662147045136E-001,
1.183633333333334E+009,1.227403059601784E-002,7.286597043275833E-002,-8.709782958030701E-001,4.694760739803314E-001,1.227403059601784E-002,7.286597043275833E-002,-8.709782958030701E-001,4.694760739803314E-001,
1.192000000000000E+009,1.220904383808374E-002,5.368149653077126E-002,-8.611807227134705E-001,4.786919355392456E-001,1.220904383808374E-002,5.368149653077126E-002,-8.611807227134705E-001,4.786919355392456E-001,
1.200366666666667E+009,9.149452671408653E-004,4.016587883234024E-002,-8.511915206909180E-001,5.076360702514648E-001,9.149452671408653E-004,4.016587883234024E-002,-8.511915206909180E-001,5.076360702514648E-001,
1.208733333333334E+009,-1.503465324640274E-002,3.297162055969238E-002,-8.437578678131104E-001,5.265187621116638E-001,-1.503465324640274E-002,3.297162055969238E-002,-8.437578678131104E-001,5.265187621116638E-001,
1.217100000000000E+009,-3.211409598588944E-002,4.042668268084526E-002,-8.257865309715271E-001,5.460638403892517E-001,-3.211409598588944E-002,4.042668268084526E-002,-8.257865309715271E-001,5.460638403892517E-001,
1.225466666666667E+009,-4.080388322472572E-002,5.282062292098999E-002,-7.992762327194214E-001,5.730372667312622E-001,-4.080388322472572E-002,5.282062292098999E-002,-7.992762327194214E-001,5.730372667312622E-001,
1.233833333333334E+009,-4.629503190517426E-002,7.034637778997421E-002,-7.810682654380798E-001,5.893142819404602E-001,-4.629503190517426E-002,7.034637778997421E-002,-7.810682654380798E-001,5.893142819404602E-001,
1.242200000000000E+009,-4.118803888559341E-002,8.888395875692368E-002,-7.664852738380432E-001,5.994756817817688E-001,-4.118803888559341E-002,8.888395875692368E-002,-7.664852738380432E-001,5.994756817817688E-001,
1.250566666666667E+009,-2.477476932108402E-002,9.961656481027603E-002,-7.402369379997253E-001,6.258041262626648E-001,-2.477476932108402E-002,9.961656481027603E-002,-7.402369379997253E-001,6.258041262626648E-001,
1.258933333333334E+009,-4.838794935494661E-003,1.007194593548775E-001,-7.503980398178101E-001,6.457291245460510E-001,-4.838794935494661E-003,1.007194593548775E-001,-7.503980398178101E-001,6.457291245460510E-001,
1.267300000000000E+009,1.343133300542831E-002,9.008665382862091E-002,-7.320575714111328E-001,6.582695245742798E-001,1.343133300542831E-002,9.008665382862091E-002,-7.320575714111328E-001,6.582695245742798E-001,
1.275666666666667E+009,2.219220809638500E-002,7.159438729286194E-002,-6.996662020683289E-001,6.823160648345947E-001,2.219220809638500E-002,7.159438729286194E-002,-6.996662020683289E-001,6.823160648345947E-001,
1.284033333333334E+009,2.123468928039074E-002,5.110811442136765E-002,-6.920590996742249E-001,7.050922513008118E-001,2.123468928039074E-002,5.110811442136765E-002,-6.920590996742249E-001,7.050922513008118E-001,
1.292400000000000E+009,9.677595458924770E-003,3.551612794399262E-002,-6.781967282295227E-001,7.217292189598084E-001,9.677595458924770E-003,3.551612794399262E-002,-6.781967282295227E-001,7.217292189598084E-001,
1.300766666666667E+009,-9.279512800276279E-003,2.854769304394722E-002,-6.527012586593628E-001,7.384893298149109E-001,-9.279512800276279E-003,2.854769304394722E-002,-6.527012586593628E-001,7.384893298149109E-001,
1.309133333333334E+009,-2.850082889199257E-002,3.384396806359291E-002,-6.374534368515015E-001,7.551173567771912E-001,-2.850082889199257E-002,3.384396806359291E-002,-6.374534368515015E-001,7.551173567771912E-001,
1.317500000000000E+009,-4.103391990065575E-002,4.997717216610909E-002,-6.116308569908142E-001,7.688122987747192E-001,-4.103391990065575E-002,4.997717216610909E-002,-6.116308569908142E-001,7.688122987747192E-001,
1.325866666666667E+009,-4.334289953112602E-002,7.063516229391098E-002,-5.948511958122253E-001,7.810629606246948E-001,-4.334289953112602E-002,7.063516229391098E-002,-5.948511958122253E-001,7.810629606246948E-001,
1.334233333333334E+009,-3.447569161653519E-002,8.901285380125046E-002,-5.666159987449646E-001,7.993415594100952E-001,-3.447569161653519E-002,8.901285380125046E-002,-5.666159987449646E-001,7.993415594100952E-001,
1.342600000000000E+009,-1.849534176290035E-002,9.842638671398163E-002,-5.487284660339356E-001,8.154879212379456E-001,-1.849534176290035E-002,9.842638671398163E-002,-5.487284660339356E-001,8.154879212379456E-001,
1.350966666666667E+009,1.198880141600967E-003,9.771280735731125E-002,-5.199867486953735E-001,8.399819731712341E-001,1.198880141600967E-003,9.771280735731125E-002,-5.199867486953735E-001,8.399819731712341E-001,
1.359333333333334E+009,1.605965942144394E-002,8.689428120851517E-002,-5.091474652290344E-001,8.412631154060364E-001,1.605965942144394E-002,8.689428120851517E-002,-5.091474652290344E-001,8.412631154060364E-001,
1.367700000000000E+009,1.989895477890968E-002,6.556206196546555E-002,-4.924884736537933E-001,8.509578704833984E-001,1.989895477890968E-002,6.556206196546555E-002,-4.924884736537933E-001,8.509578704833984E-001,
1.376066666666667E+009,1.522721536457539E-002,4.817013069987297E-002,-4.757038652896881E-001,8.701073527336121E-001,1.522721536457539E-002,4.817013069987297E-002,-4.757038652896881E-001,8.701073527336121E-001,
1.384433333333334E+009,-1.652269740588963E-003,3.328162431716919E-002,-4.482994377613068E-001,8.940230607986450E-001,-1.652269740588963E-003,3.328162431716919E-002,-4.482994377613068E-001,8.940230607986450E-001,
1.392800000000000E+009,-2.260769344866276E-002,3.314500302076340E-002,-4.317844510078430E-001,8.888358473777771E-001,-2.260769344866276E-002,3.314500302076340E-002,-4.317844510078430E-001,8.888358473777771E-001,
1.401166666666667E+009,-4.153597727417946E-002,4.570112377405167E-002,-4.044701755046845E-001,9.071766734123230E-001,-4.153597727417946E-002,4.570112377405167E-002,-4.044701755046845E-001,9.071766734123230E-001,
1.409533333333334E+009,-5.188690871000290E-002,6.345853954553604E-002,-3.709060847759247E-001,9.136991500854492E-001,-5.188690871000290E-002,6.345853954553604E-002,-3.709060847759247E-001,9.136991500854492E-001,
1.417900000000000E+009,-5.034447088837624E-002,8.960261195898056E-002,-3.576968014240265E-001,9.061123728752136E-001,-5.034447088837624E-002,8.960261195898056E-002,-3.576968014240265E-001,9.061123728752136E-001,
1.426266666666667E+009,-3.476032987236977E-002,1.078331097960472E-001,-3.248471915721893E-001,9.280362725257874E-001,-3.476032987236977E-002,1.078331097960472E-001,-3.248471915721893E-001,9.280362725257874E-001,
1.434633333333334E+009,-1.453094184398651E-002,1.184444949030876E-001,-2.949349880218506E-001,9.342069029808044E-001,-1.453094184398651E-002,1.184444949030876E-001,-2.949349880218506E-001,9.342069029808044E-001,
1.443000000000000E+009,8.162840269505978E-003,1.168650537729263E-001,-2.806527912616730E-001,9.391208291053772E-001,8.162840269505978E-003,1.168650537729263E-001,-2.806527912616730E-001,9.391208291053772E-001,
1.451366666666667E+009,2.427728287875652E-002,1.039826571941376E-001,-2.528675794601440E-001,9.423213601112366E-001,2.427728287875652E-002,1.039826571941376E-001,-2.528675794601440E-001,9.423213601112366E-001,
1.459733333333334E+009,3.283567726612091E-002,8.301597088575363E-002,-2.340554296970367E-001,9.498004913330078E-001,3.283567726612091E-002,8.301597088575363E-002,-2.340554296970367E-001,9.498004913330078E-001,
