% Version 1.00
%
%freq[Hz],re:Trc1_S11,im:Trc1_S11,re:Trc2_S21,im:Trc2_S21,re:Trc3_S11,im:Trc3_S11,re:Trc4_S21,im:Trc4_S21,
6.900000000000000E+008,-3.197150677442551E-002,5.676171928644180E-002,-4.996229112148285E-001,-8.482890129089356E-001,-3.197150677442551E-002,5.676171928644180E-002,-4.996229112148285E-001,-8.482890129089356E-001,
6.983666666666666E+008,-2.166758291423321E-002,5.791872367262840E-002,-5.229997038841248E-001,-8.395713567733765E-001,-2.166758291423321E-002,5.791872367262840E-002,-5.229997038841248E-001,-8.395713567733765E-001,
7.067333333333334E+008,-1.461424957960844E-002,5.314595997333527E-002,-5.674178004264832E-001,-7.776369452476502E-001,-1.461424957960844E-002,5.314595997333527E-002,-5.674178004264832E-001,-7.776369452476502E-001,
7.151000000000000E+008,-1.302992086857557E-002,4.590464010834694E-002,-5.869348049163818E-001,-7.913956642150879E-001,-1.302992086857557E-002,4.590464010834694E-002,-5.869348049163818E-001,-7.913956642150879E-001,
7.234666666666666E+008,-1.542776729911566E-002,4.084778949618340E-002,-5.984384417533875E-001,-7.795366048812866E-001,-1.542776729911566E-002,4.084778949618340E-002,-5.984384417533875E-001,-7.795366048812866E-001,
7.318333333333334E+008,-2.152368426322937E-002,3.889551013708115E-002,-6.138800978660584E-001,-7.777581810951233E-001,-2.152368426322937E-002,3.889551013708115E-002,-6.138800978660584E-001,-7.777581810951233E-001,
7.402000000000000E+008,-2.735405974090099E-002,3.944757953286171E-002,-6.587845683097839E-001,-7.598054409027100E-001,-2.735405974090099E-002,3.944757953286171E-002,-6.587845683097839E-001,-7.598054409027100E-001,
7.485666666666666E+008,-3.336073458194733E-002,4.589791595935822E-002,-6.569718718528748E-001,-7.558540105819702E-001,-3.336073458194733E-002,4.589791595935822E-002,-6.569718718528748E-001,-7.558540105819702E-001,
7.569333333333334E+008,-3.377482295036316E-002,5.406464636325836E-002,-6.650745272636414E-001,-7.348776459693909E-001,-3.377482295036316E-002,5.406464636325836E-002,-6.650745272636414E-001,-7.348776459693909E-001,
7.653000000000000E+008,-2.793027088046074E-002,6.182677671313286E-002,-6.830001473426819E-001,-7.148779630661011E-001,-2.793027088046074E-002,6.182677671313286E-002,-6.830001473426819E-001,-7.148779630661011E-001,
7.736666666666666E+008,-2.030836604535580E-002,6.810505688190460E-002,-7.156028151512146E-001,-6.892555356025696E-001,-2.030836604535580E-002,6.810505688190460E-002,-7.156028151512146E-001,-6.892555356025696E-001,
7.820333333333334E+008,-1.023181341588497E-002,7.090377062559128E-002,-7.268973588943481E-001,-6.765103936195374E-001,-1.023181341588497E-002,7.090377062559128E-002,-7.268973588943481E-001,-6.765103936195374E-001,
7.904000000000000E+008,1.008702674880624E-003,6.993129849433899E-002,-7.309402823448181E-001,-6.551440954208374E-001,1.008702674880624E-003,6.993129849433899E-002,-7.309402823448181E-001,-6.551440954208374E-001,
7.987666666666666E+008,6.599733605980873E-003,6.452141702175140E-002,-7.660590410232544E-001,-6.340616941452026E-001,6.599733605980873E-003,6.452141702175140E-002,-7.660590410232544E-001,-6.340616941452026E-001,
8.071333333333334E+008,1.042131427675486E-002,5.934871360659599E-002,-7.708241939544678E-001,-6.231477260589600E-001,1.042131427675486E-002,5.934871360659599E-002,-7.708241939544678E-001,-6.231477260589600E-001,
8.155000000000000E+008,5.510132759809494E-003,5.334842577576637E-002,-7.940610051155090E-001,-6.013132929801941E-001,5.510132759809494E-003,5.334842577576637E-002,-7.940610051155090E-001,-6.013132929801941E-001,
8.238666666666666E+008,2.657850040122867E-003,4.923318699002266E-002,-7.953268289566040E-001,-5.717205405235291E-001,2.657850040122867E-003,4.923318699002266E-002,-7.953268289566040E-001,-5.717205405235291E-001,
8.322333333333334E+008,-3.882783465087414E-003,4.995590448379517E-002,-8.173047900199890E-001,-5.524351596832275E-001,-3.882783465087414E-003,4.995590448379517E-002,-8.173047900199890E-001,-5.524351596832275E-001,
8.406000000000000E+008,-8.539764210581780E-003,5.396954342722893E-002,-8.283649086952210E-001,-5.391676425933838E-001,-8.539764210581780E-003,5.396954342722893E-002,-8.283649086952210E-001,-5.391676425933838E-001,
8.489666666666668E+008,-1.118888147175312E-002,6.136692687869072E-002,-8.388468623161316E-001,-5.238666534423828E-001,-1.118888147175312E-002,6.136692687869072E-002,-8.388468623161316E-001,-5.238666534423828E-001,
8.573333333333334E+008,-8.503133431077004E-003,6.896444410085678E-002,-8.560937047004700E-001,-4.827055931091309E-001,-8.503133431077004E-003,6.896444410085678E-002,-8.560937047004700E-001,-4.827055931091309E-001,
8.657000000000000E+008,1.425948459655047E-003,7.583940774202347E-002,-8.721325397491455E-001,-4.628229141235352E-001,1.425948459655047E-003,7.583940774202347E-002,-8.721325397491455E-001,-4.628229141235352E-001,
8.740666666666668E+008,1.016962248831987E-002,7.805296033620834E-002,-8.702697157859802E-001,-4.506577849388123E-001,1.016962248831987E-002,7.805296033620834E-002,-8.702697157859802E-001,-4.506577849388123E-001,
8.824333333333334E+008,2.101393043994904E-002,7.716556638479233E-002,-8.872107863426209E-001,-4.356477856636047E-001,2.101393043994904E-002,7.716556638479233E-002,-8.872107863426209E-001,-4.356477856636047E-001,
8.908000000000000E+008,3.104456327855587E-002,7.209408283233643E-002,-8.876631259918213E-001,-4.037739038467407E-001,3.104456327855587E-002,7.209408283233643E-002,-8.876631259918213E-001,-4.037739038467407E-001,
8.991666666666668E+008,3.528331220149994E-002,6.492424756288528E-002,-9.023308753967285E-001,-3.765548467636108E-001,3.528331220149994E-002,6.492424756288528E-002,-9.023308753967285E-001,-3.765548467636108E-001,
9.075333333333334E+008,3.653883561491966E-002,5.821833014488220E-002,-9.326062202453613E-001,-3.572679162025452E-001,3.653883561491966E-002,5.821833014488220E-002,-9.326062202453613E-001,-3.572679162025452E-001,
9.159000000000000E+008,3.442597389221191E-002,5.534792318940163E-002,-9.386831521987915E-001,-3.290209174156189E-001,3.442597389221191E-002,5.534792318940163E-002,-9.386831521987915E-001,-3.290209174156189E-001,
9.242666666666668E+008,2.992523834109306E-002,5.202791839838028E-002,-9.438410997390747E-001,-3.147804737091065E-001,2.992523834109306E-002,5.202791839838028E-002,-9.438410997390747E-001,-3.147804737091065E-001,
9.326333333333334E+008,2.305737324059010E-002,5.286606773734093E-002,-9.643192887306213E-001,-2.906403243541718E-001,2.305737324059010E-002,5.286606773734093E-002,-9.643192887306213E-001,-2.906403243541718E-001,
9.410000000000000E+008,2.024595998227596E-002,5.719889700412750E-002,-9.573183059692383E-001,-2.570216357707977E-001,2.024595998227596E-002,5.719889700412750E-002,-9.573183059692383E-001,-2.570216357707977E-001,
9.493666666666668E+008,2.028612047433853E-002,6.325317919254303E-002,-9.556819796562195E-001,-2.387714385986328E-001,2.028612047433853E-002,6.325317919254303E-002,-9.556819796562195E-001,-2.387714385986328E-001,
9.577333333333334E+008,2.389552816748619E-002,7.108239829540253E-002,-9.714151620864868E-001,-2.150891721248627E-001,2.389552816748619E-002,7.108239829540253E-002,-9.714151620864868E-001,-2.150891721248627E-001,
9.661000000000000E+008,3.392291441559792E-002,7.712157815694809E-002,-9.688642024993897E-001,-1.910607963800430E-001,3.392291441559792E-002,7.712157815694809E-002,-9.688642024993897E-001,-1.910607963800430E-001,
9.744666666666668E+008,4.283892735838890E-002,7.622556388378143E-002,-9.739121794700623E-001,-1.671659052371979E-001,4.283892735838890E-002,7.622556388378143E-002,-9.739121794700623E-001,-1.671659052371979E-001,
9.828333333333334E+008,5.701138079166412E-002,7.232718169689179E-002,-9.763886332511902E-001,-1.464801430702210E-001,5.701138079166412E-002,7.232718169689179E-002,-9.763886332511902E-001,-1.464801430702210E-001,
9.912000000000000E+008,6.514992564916611E-002,6.510192155838013E-002,-9.758868813514710E-001,-1.192852556705475E-001,6.514992564916611E-002,6.510192155838013E-002,-9.758868813514710E-001,-1.192852556705475E-001,
9.995666666666668E+008,7.184261083602905E-002,5.512151494622231E-002,-9.914048910140991E-001,-8.153490722179413E-002,7.184261083602905E-002,5.512151494622231E-002,-9.914048910140991E-001,-8.153490722179413E-002,
1.007933333333333E+009,7.229802757501602E-002,4.550475627183914E-002,-9.894868135452271E-001,-6.756760925054550E-002,7.229802757501602E-002,4.550475627183914E-002,-9.894868135452271E-001,-6.756760925054550E-002,
1.016300000000000E+009,6.700730323791504E-002,3.924856707453728E-002,-9.914116263389587E-001,-4.088350757956505E-002,6.700730323791504E-002,3.924856707453728E-002,-9.914116263389587E-001,-4.088350757956505E-002,
1.024666666666667E+009,6.035976484417915E-002,3.299071639776230E-002,-9.910969734191895E-001,-7.870280183851719E-003,6.035976484417915E-002,3.299071639776230E-002,-9.910969734191895E-001,-7.870280183851719E-003,
1.033033333333333E+009,5.410284548997879E-002,3.547387942671776E-002,-9.908837080001831E-001,1.147224381566048E-002,5.410284548997879E-002,3.547387942671776E-002,-9.908837080001831E-001,1.147224381566048E-002,
1.041400000000000E+009,4.876905307173729E-002,4.079467058181763E-002,-9.760888218879700E-001,4.985126852989197E-002,4.876905307173729E-002,4.079467058181763E-002,-9.760888218879700E-001,4.985126852989197E-002,
1.049766666666667E+009,4.905860871076584E-002,4.815658181905747E-002,-9.883626699447632E-001,6.911797076463699E-002,4.905860871076584E-002,4.815658181905747E-002,-9.883626699447632E-001,6.911797076463699E-002,
1.058133333333333E+009,5.537740513682365E-002,5.353833734989166E-002,-9.817488193511963E-001,8.809918165206909E-002,5.537740513682365E-002,5.353833734989166E-002,-9.817488193511963E-001,8.809918165206909E-002,
1.066500000000000E+009,6.722047924995422E-002,5.608604848384857E-002,-9.880253672599793E-001,1.270148009061813E-001,6.722047924995422E-002,5.608604848384857E-002,-9.880253672599793E-001,1.270148009061813E-001,
1.074866666666667E+009,7.780875265598297E-002,5.292979255318642E-002,-9.700443148612976E-001,1.436134278774262E-001,7.780875265598297E-002,5.292979255318642E-002,-9.700443148612976E-001,1.436134278774262E-001,
1.083233333333334E+009,8.929461240768433E-002,4.024518653750420E-002,-9.683187007904053E-001,1.650969833135605E-001,8.929461240768433E-002,4.024518653750420E-002,-9.683187007904053E-001,1.650969833135605E-001,
1.091600000000000E+009,9.569218009710312E-002,2.922349795699120E-002,-9.593195319175720E-001,1.862866729497910E-001,9.569218009710312E-002,2.922349795699120E-002,-9.593195319175720E-001,1.862866729497910E-001,
1.099966666666667E+009,9.762100130319595E-002,1.404563430696726E-002,-9.625130891799927E-001,2.247756272554398E-001,9.762100130319595E-002,1.404563430696726E-002,-9.625130891799927E-001,2.247756272554398E-001,
1.108333333333334E+009,8.890520036220551E-002,3.022654214873910E-003,-9.414405822753906E-001,2.283701449632645E-001,8.890520036220551E-002,3.022654214873910E-003,-9.414405822753906E-001,2.283701449632645E-001,
1.116700000000000E+009,7.562816888093948E-002,1.621772185899317E-003,-9.406436085700989E-001,2.728509604930878E-001,7.562816888093948E-002,1.621772185899317E-003,-9.406436085700989E-001,2.728509604930878E-001,
1.125066666666667E+009,6.410081684589386E-002,2.138347132131457E-003,-9.455003738403320E-001,2.829663157463074E-001,6.410081684589386E-002,2.138347132131457E-003,-9.455003738403320E-001,2.829663157463074E-001,
1.133433333333334E+009,5.580454319715500E-002,1.334423385560513E-002,-9.455794095993042E-001,3.084664344787598E-001,5.580454319715500E-002,1.334423385560513E-002,-9.455794095993042E-001,3.084664344787598E-001,
1.141800000000000E+009,5.540976300835609E-002,2.385525964200497E-002,-9.177849292755127E-001,3.296073377132416E-001,5.540976300835609E-002,2.385525964200497E-002,-9.177849292755127E-001,3.296073377132416E-001,
1.150166666666667E+009,6.262839585542679E-002,3.701141476631165E-002,-8.996937274932861E-001,3.605839610099793E-001,6.262839585542679E-002,3.701141476631165E-002,-8.996937274932861E-001,3.605839610099793E-001,
1.158533333333334E+009,7.700400054454804E-002,4.244650527834892E-002,-9.016665816307068E-001,3.850246667861939E-001,7.700400054454804E-002,4.244650527834892E-002,-9.016665816307068E-001,3.850246667861939E-001,
1.166900000000000E+009,9.624357521533966E-002,3.907847031950951E-002,-8.913264870643616E-001,4.183340668678284E-001,9.624357521533966E-002,3.907847031950951E-002,-8.913264870643616E-001,4.183340668678284E-001,
1.175266666666667E+009,1.104904636740685E-001,2.479974366724491E-002,-8.804880976676941E-001,4.225433468818665E-001,1.104904636740685E-001,2.479974366724491E-002,-8.804880976676941E-001,4.225433468818665E-001,
1.183633333333334E+009,1.212792396545410E-001,6.500324700027704E-003,-8.686841726303101E-001,4.603330790996552E-001,1.212792396545410E-001,6.500324700027704E-003,-8.686841726303101E-001,4.603330790996552E-001,
1.192000000000000E+009,1.214784234762192E-001,-1.580895669758320E-002,-8.588209152221680E-001,4.667147397994995E-001,1.214784234762192E-001,-1.580895669758320E-002,-8.588209152221680E-001,4.667147397994995E-001,
1.200366666666667E+009,1.103773862123489E-001,-3.235602751374245E-002,-8.502159714698792E-001,4.940300881862640E-001,1.103773862123489E-001,-3.235602751374245E-002,-8.502159714698792E-001,4.940300881862640E-001,
1.208733333333334E+009,9.492647647857666E-002,-4.276077076792717E-002,-8.445568680763245E-001,5.109177827835083E-001,9.492647647857666E-002,-4.276077076792717E-002,-8.445568680763245E-001,5.109177827835083E-001,
1.217100000000000E+009,7.729565352201462E-002,-4.029920324683189E-002,-8.306941390037537E-001,5.317962169647217E-001,7.729565352201462E-002,-4.029920324683189E-002,-8.306941390037537E-001,5.317962169647217E-001,
1.225466666666667E+009,6.633043289184570E-002,-3.303328901529312E-002,-8.051432967185974E-001,5.592300295829773E-001,6.633043289184570E-002,-3.303328901529312E-002,-8.051432967185974E-001,5.592300295829773E-001,
1.233833333333334E+009,5.990986898541451E-002,-1.747929491102696E-002,-7.886545658111572E-001,5.782499313354492E-001,5.990986898541451E-002,-1.747929491102696E-002,-7.886545658111572E-001,5.782499313354492E-001,
1.242200000000000E+009,6.408441811800003E-002,-2.337973099201918E-003,-7.740664482116699E-001,5.915720462799072E-001,6.408441811800003E-002,-2.337973099201918E-003,-7.740664482116699E-001,5.915720462799072E-001,
1.250566666666667E+009,7.886330038309097E-002,5.001177545636892E-003,-7.461820840835571E-001,6.193514466285706E-001,7.886330038309097E-002,5.001177545636892E-003,-7.461820840835571E-001,6.193514466285706E-001,
1.258933333333334E+009,9.592861682176590E-002,2.718645846471191E-003,-7.552412748336792E-001,6.388699412345886E-001,9.592861682176590E-002,2.718645846471191E-003,-7.552412748336792E-001,6.388699412345886E-001,
1.267300000000000E+009,1.120976656675339E-001,-1.164493802934885E-002,-7.335995435714722E-001,6.508610844612122E-001,1.120976656675339E-001,-1.164493802934885E-002,-7.335995435714722E-001,6.508610844612122E-001,
1.275666666666667E+009,1.206835284829140E-001,-3.224379196763039E-002,-6.998400092124939E-001,6.730129122734070E-001,1.206835284829140E-001,-3.224379196763039E-002,-6.998400092124939E-001,6.730129122734070E-001,
1.284033333333334E+009,1.182397454977036E-001,-5.638514831662178E-002,-6.927890777587891E-001,6.914355754852295E-001,1.182397454977036E-001,-5.638514831662178E-002,-6.927890777587891E-001,6.914355754852295E-001,
1.292400000000000E+009,1.057654991745949E-001,-7.628701627254486E-002,-6.810764074325562E-001,7.062320113182068E-001,1.057654991745949E-001,-7.628701627254486E-002,-6.810764074325562E-001,7.062320113182068E-001,
1.300766666666667E+009,8.643072098493576E-002,-8.553900569677353E-002,-6.584491133689880E-001,7.216087579727173E-001,8.643072098493576E-002,-8.553900569677353E-002,-6.584491133689880E-001,7.216087579727173E-001,
1.309133333333334E+009,6.423974037170410E-002,-8.522133529186249E-002,-6.475394368171692E-001,7.389054894447327E-001,6.423974037170410E-002,-8.522133529186249E-002,-6.475394368171692E-001,7.389054894447327E-001,
1.317500000000000E+009,5.124643445014954E-002,-7.457075268030167E-002,-6.232564449310303E-001,7.541287541389465E-001,5.124643445014954E-002,-7.457075268030167E-002,-6.232564449310303E-001,7.541287541389465E-001,
1.325866666666667E+009,4.504721239209175E-002,-5.655034258961678E-002,-6.077194213867188E-001,7.697219848632813E-001,4.504721239209175E-002,-5.655034258961678E-002,-6.077194213867188E-001,7.697219848632813E-001,
1.334233333333334E+009,5.108978599309921E-002,-4.095944017171860E-002,-5.787959694862366E-001,7.908238172531128E-001,5.108978599309921E-002,-4.095944017171860E-002,-5.787959694862366E-001,7.908238172531128E-001,
1.342600000000000E+009,6.378182768821716E-002,-3.439269214868546E-002,-5.589860677719116E-001,8.090601563453674E-001,6.378182768821716E-002,-3.439269214868546E-002,-5.589860677719116E-001,8.090601563453674E-001,
1.350966666666667E+009,8.036340028047562E-002,-3.832646086812019E-002,-5.273897051811218E-001,8.325722813606262E-001,8.036340028047562E-002,-3.832646086812019E-002,-5.273897051811218E-001,8.325722813606262E-001,
1.359333333333334E+009,9.444735199213028E-002,-5.183498933911324E-002,-5.157349705696106E-001,8.330006599426270E-001,9.444735199213028E-002,-5.183498933911324E-002,-5.157349705696106E-001,8.330006599426270E-001,
1.367700000000000E+009,9.420605003833771E-002,-7.461621612310410E-002,-4.982871115207672E-001,8.408101201057434E-001,9.420605003833771E-002,-7.461621612310410E-002,-4.982871115207672E-001,8.408101201057434E-001,
1.376066666666667E+009,8.711393177509308E-002,-9.511823207139969E-002,-4.828743934631348E-001,8.559632301330566E-001,8.711393177509308E-002,-9.511823207139969E-002,-4.828743934631348E-001,8.559632301330566E-001,
1.384433333333334E+009,6.818818300962448E-002,-1.136317476630211E-001,-4.584969878196716E-001,8.768571019172669E-001,6.818818300962448E-002,-1.136317476630211E-001,-4.584969878196716E-001,8.768571019172669E-001,
1.392800000000000E+009,4.490386694669724E-002,-1.181973442435265E-001,-4.450636804103851E-001,8.716150522232056E-001,4.490386694669724E-002,-1.181973442435265E-001,-4.450636804103851E-001,8.716150522232056E-001,
1.401166666666667E+009,2.368877455592156E-002,-1.108423471450806E-001,-4.218490719795227E-001,8.905661106109619E-001,2.368877455592156E-002,-1.108423471450806E-001,-4.218490719795227E-001,8.905661106109619E-001,
1.409533333333334E+009,8.958475664258003E-003,-9.524852782487869E-002,-3.912415206432343E-001,9.023663401603699E-001,8.958475664258003E-003,-9.524852782487869E-002,-3.912415206432343E-001,9.023663401603699E-001,
1.417900000000000E+009,6.369681563228369E-003,-7.219184190034866E-002,-3.781660497188568E-001,8.981825709342957E-001,6.369681563228369E-003,-7.219184190034866E-002,-3.781660497188568E-001,8.981825709342957E-001,
1.426266666666667E+009,1.660055667161942E-002,-5.692166090011597E-002,-3.445186614990234E-001,9.237902760505676E-001,1.660055667161942E-002,-5.692166090011597E-002,-3.445186614990234E-001,9.237902760505676E-001,
1.434633333333334E+009,3.401723131537437E-002,-4.752255603671074E-002,-3.103241920471191E-001,9.325535297393799E-001,3.401723131537437E-002,-4.752255603671074E-002,-3.103241920471191E-001,9.325535297393799E-001,
1.443000000000000E+009,5.194224789738655E-002,-5.084708705544472E-002,-2.928378880023956E-001,9.365003705024719E-001,5.194224789738655E-002,-5.084708705544472E-002,-2.928378880023956E-001,9.365003705024719E-001,
1.451366666666667E+009,6.532420963048935E-002,-6.461829692125320E-002,-2.604260742664337E-001,9.386501908302307E-001,6.532420963048935E-002,-6.461829692125320E-002,-2.604260742664337E-001,9.386501908302307E-001,
1.459733333333334E+009,6.977315247058868E-002,-8.831363171339035E-002,-2.435888797044754E-001,9.408492445945740E-001,6.977315247058868E-002,-8.831363171339035E-002,-2.435888797044754E-001,9.408492445945740E-001,
