% Version 1.00
%
%freq[Hz],re:Trc1_S11,im:Trc1_S11,re:Trc2_S21,im:Trc2_S21,re:Trc3_S11,im:Trc3_S11,re:Trc4_S21,im:Trc4_S21,
6.900000000000000E+008,-1.668951287865639E-002,1.609208062291145E-002,-4.652338922023773E-001,-8.714019060134888E-001,-1.668951287865639E-002,1.609208062291145E-002,-4.652338922023773E-001,-8.714019060134888E-001,
6.983666666666666E+008,-7.186981849372387E-003,1.679138839244843E-002,-4.899610579013825E-001,-8.639149069786072E-001,-7.186981849372387E-003,1.679138839244843E-002,-4.899610579013825E-001,-8.639149069786072E-001,
7.067333333333334E+008,-5.663619958795607E-004,1.168687734752893E-002,-5.363691449165344E-001,-8.029190301895142E-001,-5.663619958795607E-004,1.168687734752893E-002,-5.363691449165344E-001,-8.029190301895142E-001,
7.151000000000000E+008,-9.157024760497734E-005,3.639497561380267E-003,-5.540415048599243E-001,-8.177196979522705E-001,-9.157024760497734E-005,3.639497561380267E-003,-5.540415048599243E-001,-8.177196979522705E-001,
7.234666666666666E+008,-3.452335251495242E-003,-2.242910908535123E-003,-5.667756199836731E-001,-8.067502379417419E-001,-3.452335251495242E-003,-2.242910908535123E-003,-5.667756199836731E-001,-8.067502379417419E-001,
7.318333333333334E+008,-1.068154349923134E-002,-5.553347058594227E-003,-5.809615850448608E-001,-8.058248758316040E-001,-1.068154349923134E-002,-5.553347058594227E-003,-5.809615850448608E-001,-8.058248758316040E-001,
7.402000000000000E+008,-1.774352602660656E-002,-5.886932834982872E-003,-6.260364651679993E-001,-7.908841371536255E-001,-1.774352602660656E-002,-5.886932834982872E-003,-6.260364651679993E-001,-7.908841371536255E-001,
7.485666666666666E+008,-2.571366541087627E-002,-8.092909702099860E-004,-6.243153810501099E-001,-7.874057292938232E-001,-2.571366541087627E-002,-8.092909702099860E-004,-6.243153810501099E-001,-7.874057292938232E-001,
7.569333333333334E+008,-2.818003296852112E-002,6.222015712410212E-003,-6.327848434448242E-001,-7.663393616676331E-001,-2.818003296852112E-002,6.222015712410212E-003,-6.327848434448242E-001,-7.663393616676331E-001,
7.653000000000000E+008,-2.471343427896500E-002,1.336208730936050E-002,-6.516632437705994E-001,-7.489811182022095E-001,-2.471343427896500E-002,1.336208730936050E-002,-6.516632437705994E-001,-7.489811182022095E-001,
7.736666666666666E+008,-1.846814900636673E-002,1.946382224559784E-002,-6.856594681739807E-001,-7.238456010818481E-001,-1.846814900636673E-002,1.946382224559784E-002,-6.856594681739807E-001,-7.238456010818481E-001,
7.820333333333334E+008,-1.029483415186405E-002,2.216445654630661E-002,-6.977732181549072E-001,-7.118454575538635E-001,-1.029483415186405E-002,2.216445654630661E-002,-6.977732181549072E-001,-7.118454575538635E-001,
7.904000000000000E+008,-5.209266673773527E-004,2.098377235233784E-002,-7.025001049041748E-001,-6.908667087554932E-001,-5.209266673773527E-004,2.098377235233784E-002,-7.025001049041748E-001,-6.908667087554932E-001,
7.987666666666666E+008,4.185045603662729E-003,1.561271026730537E-002,-7.382001280784607E-001,-6.719184517860413E-001,4.185045603662729E-003,1.561271026730537E-002,-7.382001280784607E-001,-6.719184517860413E-001,
8.071333333333334E+008,6.914732046425343E-003,1.033678464591503E-002,-7.427203059196472E-001,-6.605086326599121E-001,6.914732046425343E-003,1.033678464591503E-002,-7.427203059196472E-001,-6.605086326599121E-001,
8.155000000000000E+008,1.451185322366655E-003,3.622242715209723E-003,-7.670499682426453E-001,-6.404917836189270E-001,1.451185322366655E-003,3.622242715209723E-003,-7.670499682426453E-001,-6.404917836189270E-001,
8.238666666666666E+008,-3.142099594697356E-003,-8.115238160826266E-004,-7.685732245445252E-001,-6.120212078094482E-001,-3.142099594697356E-003,-8.115238160826266E-004,-7.685732245445252E-001,-6.120212078094482E-001,
8.322333333333334E+008,-1.104033738374710E-002,-1.001339638605714E-003,-7.906532883644104E-001,-5.936844348907471E-001,-1.104033738374710E-002,-1.001339638605714E-003,-7.906532883644104E-001,-5.936844348907471E-001,
8.406000000000000E+008,-1.810644567012787E-002,2.603653119876981E-003,-8.021587133407593E-001,-5.822254419326782E-001,-1.810644567012787E-002,2.603653119876981E-003,-8.021587133407593E-001,-5.822254419326782E-001,
8.489666666666668E+008,-2.280485630035400E-002,8.923679590225220E-003,-8.137173056602478E-001,-5.678378939628601E-001,-2.280485630035400E-002,8.923679590225220E-003,-8.137173056602478E-001,-5.678378939628601E-001,
8.573333333333334E+008,-2.209942415356636E-002,1.680477894842625E-002,-8.325017094612122E-001,-5.280611515045166E-001,-2.209942415356636E-002,1.680477894842625E-002,-8.325017094612122E-001,-5.280611515045166E-001,
8.657000000000000E+008,-1.589397527277470E-002,2.349002100527287E-002,-8.509312868118286E-001,-5.096959471702576E-001,-1.589397527277470E-002,2.349002100527287E-002,-8.509312868118286E-001,-5.096959471702576E-001,
8.740666666666668E+008,-8.975410833954811E-003,2.660841494798660E-002,-8.496684432029724E-001,-4.976111054420471E-001,-8.975410833954811E-003,2.660841494798660E-002,-8.496684432029724E-001,-4.976111054420471E-001,
8.824333333333334E+008,3.121310437563807E-004,2.647043950855732E-002,-8.675634860992432E-001,-4.835218191146851E-001,3.121310437563807E-004,2.647043950855732E-002,-8.675634860992432E-001,-4.835218191146851E-001,
8.908000000000000E+008,8.777702227234840E-003,2.225429192185402E-002,-8.695400953292847E-001,-4.516121745109558E-001,8.777702227234840E-003,2.225429192185402E-002,-8.695400953292847E-001,-4.516121745109558E-001,
8.991666666666668E+008,1.237114053219557E-002,1.581148430705071E-002,-8.850760459899902E-001,-4.252157807350159E-001,1.237114053219557E-002,1.581148430705071E-002,-8.850760459899902E-001,-4.252157807350159E-001,
9.075333333333334E+008,1.204637624323368E-002,8.958244696259499E-003,-9.158958792686462E-001,-4.080522656440735E-001,1.204637624323368E-002,8.958244696259499E-003,-9.158958792686462E-001,-4.080522656440735E-001,
9.159000000000000E+008,8.557917550206184E-003,6.254207342863083E-003,-9.221484661102295E-001,-3.800016045570374E-001,8.557917550206184E-003,6.254207342863083E-003,-9.221484661102295E-001,-3.800016045570374E-001,
9.242666666666668E+008,2.649283269420266E-003,2.989850006997585E-003,-9.284552931785584E-001,-3.661706745624542E-001,2.649283269420266E-003,2.989850006997585E-003,-9.284552931785584E-001,-3.661706745624542E-001,
9.326333333333334E+008,-5.865434184670448E-003,3.480550367385149E-003,-9.501087069511414E-001,-3.446834981441498E-001,-5.865434184670448E-003,3.480550367385149E-003,-9.501087069511414E-001,-3.446834981441498E-001,
9.410000000000000E+008,-1.087228301912546E-002,7.860986515879631E-003,-9.446395635604858E-001,-3.115498423576355E-001,-1.087228301912546E-002,7.860986515879631E-003,-9.446395635604858E-001,-3.115498423576355E-001,
9.493666666666668E+008,-1.372976135462523E-002,1.438385527580977E-002,-9.444255828857422E-001,-2.943512201309204E-001,-1.372976135462523E-002,1.438385527580977E-002,-9.444255828857422E-001,-2.943512201309204E-001,
9.577333333333334E+008,-1.267062686383724E-002,2.315617538988590E-002,-9.609478712081909E-001,-2.716119587421417E-001,-1.267062686383724E-002,2.315617538988590E-002,-9.609478712081909E-001,-2.716119587421417E-001,
9.661000000000000E+008,-6.159064825624228E-003,3.044404834508896E-002,-9.607086777687073E-001,-2.476904243230820E-001,-6.159064825624228E-003,3.044404834508896E-002,-9.607086777687073E-001,-2.476904243230820E-001,
9.744666666666668E+008,1.424577203579247E-003,3.193829581141472E-002,-9.682622551918030E-001,-2.244836539030075E-001,1.424577203579247E-003,3.193829581141472E-002,-9.682622551918030E-001,-2.244836539030075E-001,
9.828333333333334E+008,1.402118708938360E-002,2.998245693743229E-002,-9.718973040580750E-001,-2.037434577941895E-001,1.402118708938360E-002,2.998245693743229E-002,-9.718973040580750E-001,-2.037434577941895E-001,
9.912000000000000E+008,2.115918509662151E-002,2.421658858656883E-002,-9.726832509040833E-001,-1.764039397239685E-001,2.115918509662151E-002,2.421658858656883E-002,-9.726832509040833E-001,-1.764039397239685E-001,
9.995666666666668E+008,2.741464599967003E-002,1.630808785557747E-002,-9.901415705680847E-001,-1.404035091400147E-001,2.741464599967003E-002,1.630808785557747E-002,-9.901415705680847E-001,-1.404035091400147E-001,
1.007933333333333E+009,2.720532193779945E-002,7.260832004249096E-003,-9.880906939506531E-001,-1.255500316619873E-001,2.720532193779945E-002,7.260832004249096E-003,-9.880906939506531E-001,-1.255500316619873E-001,
1.016300000000000E+009,2.120423316955566E-002,1.550498185679317E-003,-9.917268157005310E-001,-9.903221577405930E-002,2.120423316955566E-002,1.550498185679317E-003,-9.917268157005310E-001,-9.903221577405930E-002,
1.024666666666667E+009,1.346839591860771E-002,-4.729166161268950E-003,-9.932873845100403E-001,-6.706450879573822E-002,1.346839591860771E-002,-4.729166161268950E-003,-9.932873845100403E-001,-6.706450879573822E-002,
1.033033333333333E+009,5.652247928082943E-003,-1.863701036199927E-003,-9.932120442390442E-001,-4.929099604487419E-002,5.652247928082943E-003,-1.863701036199927E-003,-9.932120442390442E-001,-4.929099604487419E-002,
1.041400000000000E+009,-1.713977195322514E-003,4.201213363558054E-003,-9.813122749328613E-001,-1.049021724611521E-002,-1.713977195322514E-003,4.201213363558054E-003,-9.813122749328613E-001,-1.049021724611521E-002,
1.049766666666667E+009,-4.371158313006163E-003,1.283809915184975E-002,-9.945928454399109E-001,7.922857999801636E-003,-4.371158313006163E-003,1.283809915184975E-002,-9.945928454399109E-001,7.922857999801636E-003,
1.058133333333333E+009,-5.070712068118155E-004,2.036496996879578E-002,-9.906342029571533E-001,2.577903680503368E-002,-5.070712068118155E-004,2.036496996879578E-002,-9.906342029571533E-001,2.577903680503368E-002,
1.066500000000000E+009,8.382610976696014E-003,2.580888569355011E-002,-9.997420310974121E-001,6.369286775588989E-002,8.382610976696014E-003,2.580888569355011E-002,-9.997420310974121E-001,6.369286775588989E-002,
1.074866666666667E+009,1.866721920669079E-002,2.507268078625202E-002,-9.835092425346375E-001,8.219011873006821E-002,1.866721920669079E-002,2.507268078625202E-002,-9.835092425346375E-001,8.219011873006821E-002,
1.083233333333334E+009,2.951017208397389E-002,1.557103637605906E-002,-9.835594296455383E-001,1.036392524838448E-001,2.951017208397389E-002,1.557103637605906E-002,-9.835594296455383E-001,1.036392524838448E-001,
1.091600000000000E+009,3.607546165585518E-002,6.163459271192551E-003,-9.756115078926086E-001,1.256563067436218E-001,3.607546165585518E-002,6.163459271192551E-003,-9.756115078926086E-001,1.256563067436218E-001,
1.099966666666667E+009,3.726499155163765E-002,-7.289340719580650E-003,-9.809381961822510E-001,1.636724621057510E-001,3.726499155163765E-002,-7.289340719580650E-003,-9.809381961822510E-001,1.636724621057510E-001,
1.108333333333334E+009,2.871133014559746E-002,-1.793309487402439E-002,-9.586108922958374E-001,1.676459759473801E-001,2.871133014559746E-002,-1.793309487402439E-002,-9.586108922958374E-001,1.676459759473801E-001,
1.116700000000000E+009,1.598970405757427E-002,-1.832884550094605E-002,-9.614571928977966E-001,2.125405818223953E-001,1.598970405757427E-002,-1.832884550094605E-002,-9.614571928977966E-001,2.125405818223953E-001,
1.125066666666667E+009,2.123507205396891E-003,-1.843464002013207E-002,-9.662616252899170E-001,2.212263196706772E-001,2.123507205396891E-003,-1.843464002013207E-002,-9.662616252899170E-001,2.212263196706772E-001,
1.133433333333334E+009,-8.528267033398151E-003,-6.223396398127079E-003,-9.680895209312439E-001,2.452445775270462E-001,-8.528267033398151E-003,-6.223396398127079E-003,-9.680895209312439E-001,2.452445775270462E-001,
1.141800000000000E+009,-1.162867620587349E-002,6.211811676621437E-003,-9.417998790740967E-001,2.675529122352600E-001,-1.162867620587349E-002,6.211811676621437E-003,-9.417998790740967E-001,2.675529122352600E-001,
1.150166666666667E+009,-7.609388791024685E-003,2.252809889614582E-002,-9.279875755310059E-001,2.989265322685242E-001,-7.609388791024685E-003,2.252809889614582E-002,-9.279875755310059E-001,2.989265322685242E-001,
1.158533333333334E+009,4.993500653654337E-003,3.170619532465935E-002,-9.317597150802612E-001,3.225394487380981E-001,4.993500653654337E-003,3.170619532465935E-002,-9.317597150802612E-001,3.225394487380981E-001,
1.166900000000000E+009,2.302976511418819E-002,3.293337672948837E-002,-9.249791502952576E-001,3.559132218360901E-001,2.302976511418819E-002,3.293337672948837E-002,-9.249791502952576E-001,3.559132218360901E-001,
1.175266666666667E+009,3.882259130477905E-002,2.311829105019569E-002,-9.160052537918091E-001,3.627837300300598E-001,3.882259130477905E-002,2.311829105019569E-002,-9.160052537918091E-001,3.627837300300598E-001,
1.183633333333334E+009,5.088627710938454E-002,8.219589479267597E-003,-9.063659310340881E-001,4.012143015861511E-001,5.088627710938454E-002,8.219589479267597E-003,-9.063659310340881E-001,4.012143015861511E-001,
1.192000000000000E+009,5.307964608073235E-002,-1.224599033594132E-002,-8.969280123710632E-001,4.091484844684601E-001,5.307964608073235E-002,-1.224599033594132E-002,-8.969280123710632E-001,4.091484844684601E-001,
1.200366666666667E+009,4.373090341687203E-002,-2.815186046063900E-002,-8.893066048622131E-001,4.372190535068512E-001,4.373090341687203E-002,-2.815186046063900E-002,-8.893066048622131E-001,4.372190535068512E-001,
1.208733333333334E+009,2.884673140943050E-002,-3.900777548551559E-002,-8.843730092048645E-001,4.542887508869171E-001,2.884673140943050E-002,-3.900777548551559E-002,-8.843730092048645E-001,4.542887508869171E-001,
1.217100000000000E+009,1.030980143696070E-002,-3.632041811943054E-002,-8.701193928718567E-001,4.742535054683685E-001,1.030980143696070E-002,-3.632041811943054E-002,-8.701193928718567E-001,4.742535054683685E-001,
1.225466666666667E+009,-2.375262789428234E-003,-2.795540541410446E-002,-8.474674224853516E-001,5.020412802696228E-001,-2.375262789428234E-003,-2.795540541410446E-002,-8.474674224853516E-001,5.020412802696228E-001,
1.233833333333334E+009,-1.108762808144093E-002,-1.168947387486696E-002,-8.328720331192017E-001,5.206612944602966E-001,-1.108762808144093E-002,-1.168947387486696E-002,-8.328720331192017E-001,5.206612944602966E-001,
1.242200000000000E+009,-9.798622690141201E-003,6.425918079912663E-003,-8.200242519378662E-001,5.335848927497864E-001,-9.798622690141201E-003,6.425918079912663E-003,-8.200242519378662E-001,5.335848927497864E-001,
1.250566666666667E+009,3.145438851788640E-003,1.836159452795982E-002,-7.961837053298950E-001,5.632017850875855E-001,3.145438851788640E-003,1.836159452795982E-002,-7.961837053298950E-001,5.632017850875855E-001,
1.258933333333334E+009,2.061405777931213E-002,2.175358124077320E-002,-8.074428439140320E-001,5.830971002578735E-001,2.061405777931213E-002,2.175358124077320E-002,-8.074428439140320E-001,5.830971002578735E-001,
1.267300000000000E+009,3.860302269458771E-002,1.280751638114452E-002,-7.881875634193420E-001,5.970783233642578E-001,3.860302269458771E-002,1.280751638114452E-002,-7.881875634193420E-001,5.970783233642578E-001,
1.275666666666667E+009,4.982503131031990E-002,-4.905523266643286E-003,-7.565256953239441E-001,6.224948763847351E-001,4.982503131031990E-002,-4.905523266643286E-003,-7.565256953239441E-001,6.224948763847351E-001,
1.284033333333334E+009,5.078878998756409E-002,-2.670288272202015E-002,-7.504786252975464E-001,6.426050662994385E-001,5.078878998756409E-002,-2.670288272202015E-002,-7.504786252975464E-001,6.426050662994385E-001,
1.292400000000000E+009,4.098581522703171E-002,-4.572250694036484E-002,-7.394376993179321E-001,6.589167714118958E-001,4.098581522703171E-002,-4.572250694036484E-002,-7.394376993179321E-001,6.589167714118958E-001,
1.300766666666667E+009,2.319619245827198E-002,-5.619632080197334E-002,-7.163487076759338E-001,6.756244301795960E-001,2.319619245827198E-002,-5.619632080197334E-002,-7.163487076759338E-001,6.756244301795960E-001,
1.309133333333334E+009,1.513702329248190E-003,-5.577143654227257E-002,-7.049809694290161E-001,6.932107806205750E-001,1.513702329248190E-003,-5.577143654227257E-002,-7.049809694290161E-001,6.932107806205750E-001,
1.317500000000000E+009,-1.377314329147339E-002,-4.485630616545677E-002,-6.825441122055054E-001,7.080910205841065E-001,-1.377314329147339E-002,-4.485630616545677E-002,-6.825441122055054E-001,7.080910205841065E-001,
1.325866666666667E+009,-2.130291797220707E-002,-2.541510947048664E-002,-6.682453751564026E-001,7.233177423477173E-001,-2.130291797220707E-002,-2.541510947048664E-002,-6.682453751564026E-001,7.233177423477173E-001,
1.334233333333334E+009,-1.719132810831070E-002,-6.749476306140423E-003,-6.427122950553894E-001,7.453578114509583E-001,-1.719132810831070E-002,-6.749476306140423E-003,-6.427122950553894E-001,7.453578114509583E-001,
1.342600000000000E+009,-5.031445063650608E-003,4.591392818838358E-003,-6.262993812561035E-001,7.647128105163574E-001,-5.031445063650608E-003,4.591392818838358E-003,-6.262993812561035E-001,7.647128105163574E-001,
1.350966666666667E+009,1.267839781939983E-002,6.129865534603596E-003,-5.980728268623352E-001,7.921679615974426E-001,1.267839781939983E-002,6.129865534603596E-003,-5.980728268623352E-001,7.921679615974426E-001,
1.359333333333334E+009,2.876449190080166E-002,-3.135411767289043E-003,-5.876468420028687E-001,7.939912676811218E-001,2.876449190080166E-002,-3.135411767289043E-003,-5.876468420028687E-001,7.939912676811218E-001,
1.367700000000000E+009,3.358755260705948E-002,-2.313039451837540E-002,-5.704150199890137E-001,8.043702840805054E-001,3.358755260705948E-002,-2.313039451837540E-002,-5.704150199890137E-001,8.043702840805054E-001,
1.376066666666667E+009,3.077824413776398E-002,-4.239625483751297E-002,-5.557279586791992E-001,8.223506808280945E-001,3.077824413776398E-002,-4.239625483751297E-002,-5.557279586791992E-001,8.223506808280945E-001,
1.384433333333334E+009,1.500894688069820E-002,-6.118428334593773E-002,-5.313526391983032E-001,8.455553650856018E-001,1.500894688069820E-002,-6.118428334593773E-002,-5.313526391983032E-001,8.455553650856018E-001,
1.392800000000000E+009,-6.481159478425980E-003,-6.674251705408096E-002,-5.168666839599609E-001,8.409988880157471E-001,-6.481159478425980E-003,-6.674251705408096E-002,-5.168666839599609E-001,8.409988880157471E-001,
1.401166666666667E+009,-2.825780957937241E-002,-6.012648716568947E-002,-4.948883950710297E-001,8.603612780570984E-001,-2.825780957937241E-002,-6.012648716568947E-002,-4.948883950710297E-001,8.603612780570984E-001,
1.409533333333334E+009,-4.395082592964172E-002,-4.498121887445450E-002,-4.647741317749023E-001,8.724411129951477E-001,-4.395082592964172E-002,-4.498121887445450E-002,-4.647741317749023E-001,8.724411129951477E-001,
1.417900000000000E+009,-4.862888902425766E-002,-2.009323611855507E-002,-4.520682096481323E-001,8.672848939895630E-001,-4.862888902425766E-002,-2.009323611855507E-002,-4.520682096481323E-001,8.672848939895630E-001,
1.426266666666667E+009,-3.989487886428833E-002,-7.572712493129075E-004,-4.223771691322327E-001,8.948008418083191E-001,-3.989487886428833E-002,-7.572712493129075E-004,-4.223771691322327E-001,8.948008418083191E-001,
1.434633333333334E+009,-2.296692505478859E-002,1.339180208742619E-002,-3.916207253932953E-001,9.057300686836243E-001,-2.296692505478859E-002,1.339180208742619E-002,-3.916207253932953E-001,9.057300686836243E-001,
1.443000000000000E+009,-2.666734857484698E-003,1.571917720139027E-002,-3.766135275363922E-001,9.119402766227722E-001,-2.666734857484698E-003,1.571917720139027E-002,-3.766135275363922E-001,9.119402766227722E-001,
1.451366666666667E+009,1.463409047573805E-002,6.180071271955967E-003,-3.466098904609680E-001,9.178140759468079E-001,1.463409047573805E-002,6.180071271955967E-003,-3.466098904609680E-001,9.178140759468079E-001,
1.459733333333334E+009,2.438951283693314E-002,-1.433779671788216E-002,-3.297130465507507E-001,9.244198203086853E-001,2.438951283693314E-002,-1.433779671788216E-002,-3.297130465507507E-001,9.244198203086853E-001,
