% Version 1.00
%
%freq[Hz],re:Trc1_S11,im:Trc1_S11,re:Trc2_S21,im:Trc2_S21,re:Trc3_S11,im:Trc3_S11,re:Trc4_S21,im:Trc4_S21,
6.900000000000000E+008,-2.441142871975899E-002,6.027827039361000E-002,-4.996529519557953E-001,-8.488194942474365E-001,-2.441142871975899E-002,6.027827039361000E-002,-4.996529519557953E-001,-8.488194942474365E-001,
6.983666666666666E+008,-1.382325589656830E-002,6.143095344305039E-002,-5.225392580032349E-001,-8.400157690048218E-001,-1.382325589656830E-002,6.143095344305039E-002,-5.225392580032349E-001,-8.400157690048218E-001,
7.067333333333334E+008,-6.315530743449926E-003,5.662614852190018E-002,-5.673142671585083E-001,-7.779432535171509E-001,-6.315530743449926E-003,5.662614852190018E-002,-5.673142671585083E-001,-7.779432535171509E-001,
7.151000000000000E+008,-4.199914168566465E-003,4.908351972699165E-002,-5.864239335060120E-001,-7.913544178009033E-001,-4.199914168566465E-003,4.908351972699165E-002,-5.864239335060120E-001,-7.913544178009033E-001,
7.234666666666666E+008,-6.158798467367888E-003,4.363430663943291E-002,-5.981001257896423E-001,-7.799689769744873E-001,-6.158798467367888E-003,4.363430663943291E-002,-5.981001257896423E-001,-7.799689769744873E-001,
7.318333333333334E+008,-1.174753252416849E-002,4.118500277400017E-002,-6.132854223251343E-001,-7.780364751815796E-001,-1.174753252416849E-002,4.118500277400017E-002,-6.132854223251343E-001,-7.780364751815796E-001,
7.402000000000000E+008,-1.730277575552464E-002,4.129083454608917E-002,-6.582615375518799E-001,-7.603617906570435E-001,-1.730277575552464E-002,4.129083454608917E-002,-6.582615375518799E-001,-7.603617906570435E-001,
7.485666666666666E+008,-2.307967282831669E-002,4.719468206167221E-002,-6.567888855934143E-001,-7.564777731895447E-001,-2.307967282831669E-002,4.719468206167221E-002,-6.567888855934143E-001,-7.564777731895447E-001,
7.569333333333334E+008,-2.332824654877186E-002,5.494736507534981E-002,-6.650656461715698E-001,-7.352486848831177E-001,-2.332824654877186E-002,5.494736507534981E-002,-6.650656461715698E-001,-7.352486848831177E-001,
7.653000000000000E+008,-1.744133979082108E-002,6.243335828185082E-002,-6.828665137290955E-001,-7.152013182640076E-001,-1.744133979082108E-002,6.243335828185082E-002,-6.828665137290955E-001,-7.152013182640076E-001,
7.736666666666666E+008,-9.730161167681217E-003,6.873416155576706E-002,-7.154220342636108E-001,-6.897643208503723E-001,-9.730161167681217E-003,6.873416155576706E-002,-7.154220342636108E-001,-6.897643208503723E-001,
7.820333333333334E+008,5.061859847046435E-004,7.137769460678101E-002,-7.267421483993530E-001,-6.765193343162537E-001,5.061859847046435E-004,7.137769460678101E-002,-7.267421483993530E-001,-6.765193343162537E-001,
7.904000000000000E+008,1.209966558963060E-002,7.007467746734619E-002,-7.306945919990540E-001,-6.549959778785706E-001,1.209966558963060E-002,7.007467746734619E-002,-7.306945919990540E-001,-6.549959778785706E-001,
7.987666666666666E+008,1.798027567565441E-002,6.438937038183212E-002,-7.655515074729919E-001,-6.343854665756226E-001,1.798027567565441E-002,6.438937038183212E-002,-7.655515074729919E-001,-6.343854665756226E-001,
8.071333333333334E+008,2.221282571554184E-002,5.874625593423843E-002,-7.704849243164063E-001,-6.231556534767151E-001,2.221282571554184E-002,5.874625593423843E-002,-7.704849243164063E-001,-6.231556534767151E-001,
8.155000000000000E+008,1.762107014656067E-002,5.220658332109451E-002,-7.934833765029907E-001,-6.014596819877625E-001,1.762107014656067E-002,5.220658332109451E-002,-7.934833765029907E-001,-6.014596819877625E-001,
8.238666666666666E+008,1.489175576716662E-002,4.735347628593445E-002,-7.948719859123230E-001,-5.720417499542236E-001,1.489175576716662E-002,4.735347628593445E-002,-7.948719859123230E-001,-5.720417499542236E-001,
8.322333333333334E+008,8.568170480430126E-003,4.745801910758019E-002,-8.166894912719727E-001,-5.524190664291382E-001,8.568170480430126E-003,4.745801910758019E-002,-8.166894912719727E-001,-5.524190664291382E-001,
8.406000000000000E+008,3.940366208553314E-003,5.076288431882858E-002,-8.276708722114563E-001,-5.395023226737976E-001,3.940366208553314E-003,5.076288431882858E-002,-8.276708722114563E-001,-5.395023226737976E-001,
8.489666666666668E+008,1.530535053461790E-003,5.767989531159401E-002,-8.384253382682800E-001,-5.240274071693420E-001,1.530535053461790E-003,5.767989531159401E-002,-8.384253382682800E-001,-5.240274071693420E-001,
8.573333333333334E+008,4.287490621209145E-003,6.494957208633423E-002,-8.554028272628784E-001,-4.831005632877350E-001,4.287490621209145E-003,6.494957208633423E-002,-8.554028272628784E-001,-4.831005632877350E-001,
8.657000000000000E+008,1.439619809389114E-002,7.108666002750397E-002,-8.716714978218079E-001,-4.629839062690735E-001,1.439619809389114E-002,7.108666002750397E-002,-8.716714978218079E-001,-4.629839062690735E-001,
8.740666666666668E+008,2.318438142538071E-002,7.306907325983048E-002,-8.695266842842102E-001,-4.507839083671570E-001,2.318438142538071E-002,7.306907325983048E-002,-8.695266842842102E-001,-4.507839083671570E-001,
8.824333333333334E+008,3.408314287662506E-002,7.170377671718597E-002,-8.863983750343323E-001,-4.357477724552155E-001,3.408314287662506E-002,7.170377671718597E-002,-8.863983750343323E-001,-4.357477724552155E-001,
8.908000000000000E+008,4.407425969839096E-002,6.596162170171738E-002,-8.866472840309143E-001,-4.041823446750641E-001,4.407425969839096E-002,6.596162170171738E-002,-8.866472840309143E-001,-4.041823446750641E-001,
8.991666666666668E+008,4.831324517726898E-002,5.830225348472595E-002,-9.012970924377441E-001,-3.765717446804047E-001,4.831324517726898E-002,5.830225348472595E-002,-9.012970924377441E-001,-3.765717446804047E-001,
9.075333333333334E+008,4.961448162794113E-002,5.075434595346451E-002,-9.311333894729614E-001,-3.575203716754913E-001,4.961448162794113E-002,5.075434595346451E-002,-9.311333894729614E-001,-3.575203716754913E-001,
9.159000000000000E+008,4.731849953532219E-002,4.713550955057144E-002,-9.372912049293518E-001,-3.292000293731690E-001,4.731849953532219E-002,4.713550955057144E-002,-9.372912049293518E-001,-3.292000293731690E-001,
9.242666666666668E+008,4.257099702954292E-002,4.313044250011444E-002,-9.427165389060974E-001,-3.151778876781464E-001,4.257099702954292E-002,4.313044250011444E-002,-9.427165389060974E-001,-3.151778876781464E-001,
9.326333333333334E+008,3.556624054908752E-002,4.336950555443764E-002,-9.637315869331360E-001,-2.912534177303314E-001,3.556624054908752E-002,4.336950555443764E-002,-9.637315869331360E-001,-2.912534177303314E-001,
9.410000000000000E+008,3.262495622038841E-002,4.709442332386971E-002,-9.564543366432190E-001,-2.575378417968750E-001,3.262495622038841E-002,4.709442332386971E-002,-9.564543366432190E-001,-2.575378417968750E-001,
9.493666666666668E+008,3.260322287678719E-002,5.250281095504761E-002,-9.549075961112976E-001,-2.393227219581604E-001,3.260322287678719E-002,5.250281095504761E-002,-9.549075961112976E-001,-2.393227219581604E-001,
9.577333333333334E+008,3.612936288118362E-002,5.989014357328415E-002,-9.710754752159119E-001,-2.154588103294373E-001,3.612936288118362E-002,5.989014357328415E-002,-9.710754752159119E-001,-2.154588103294373E-001,
9.661000000000000E+008,4.616899788379669E-002,6.514441221952438E-002,-9.685741066932678E-001,-1.914844661951065E-001,4.616899788379669E-002,6.514441221952438E-002,-9.685741066932678E-001,-1.914844661951065E-001,
9.744666666666668E+008,5.482730269432068E-002,6.383590400218964E-002,-9.733437895774841E-001,-1.671510040760040E-001,5.482730269432068E-002,6.383590400218964E-002,-9.733437895774841E-001,-1.671510040760040E-001,
9.828333333333334E+008,6.876673549413681E-002,5.922310799360275E-002,-9.755486845970154E-001,-1.462572962045670E-001,6.876673549413681E-002,5.922310799360275E-002,-9.755486845970154E-001,-1.462572962045670E-001,
9.912000000000000E+008,7.674974948167801E-002,5.134589970111847E-002,-9.751887917518616E-001,-1.193454563617706E-001,7.674974948167801E-002,5.134589970111847E-002,-9.751887917518616E-001,-1.193454563617706E-001,
9.995666666666668E+008,8.290097862482071E-002,4.076264053583145E-002,-9.901487827301025E-001,-8.155992627143860E-002,8.290097862482071E-002,4.076264053583145E-002,-9.901487827301025E-001,-8.155992627143860E-002,
1.007933333333333E+009,8.318224549293518E-002,3.040454350411892E-002,-9.880208373069763E-001,-6.686729937791824E-002,8.318224549293518E-002,3.040454350411892E-002,-9.880208373069763E-001,-6.686729937791824E-002,
1.016300000000000E+009,7.746263593435288E-002,2.354116924107075E-002,-9.898512959480286E-001,-4.073530063033104E-002,7.746263593435288E-002,2.354116924107075E-002,-9.898512959480286E-001,-4.073530063033104E-002,
1.024666666666667E+009,7.044407725334168E-002,1.670248433947563E-002,-9.893651008605957E-001,-8.221840485930443E-003,7.044407725334168E-002,1.670248433947563E-002,-9.893651008605957E-001,-8.221840485930443E-003,
1.033033333333333E+009,6.371914595365524E-002,1.848956011235714E-002,-9.889008998870850E-001,1.050573028624058E-002,6.371914595365524E-002,1.848956011235714E-002,-9.889008998870850E-001,1.050573028624058E-002,
1.041400000000000E+009,5.804173648357391E-002,2.326655201613903E-002,-9.742228388786316E-001,4.885784909129143E-002,5.804173648357391E-002,2.326655201613903E-002,-9.742228388786316E-001,4.885784909129143E-002,
1.049766666666667E+009,5.791383609175682E-002,2.987454086542130E-002,-9.866615533828735E-001,6.858155876398087E-002,5.791383609175682E-002,2.987454086542130E-002,-9.866615533828735E-001,6.858155876398087E-002,
1.058133333333333E+009,6.380584090948105E-002,3.471674397587776E-002,-9.804102182388306E-001,8.735246211290360E-002,6.380584090948105E-002,3.471674397587776E-002,-9.804102182388306E-001,8.735246211290360E-002,
1.066500000000000E+009,7.504317164421082E-002,3.639284521341324E-002,-9.865442514419556E-001,1.264247745275497E-001,7.504317164421082E-002,3.639284521341324E-002,-9.865442514419556E-001,1.264247745275497E-001,
1.074866666666667E+009,8.522248268127441E-002,3.290791064500809E-002,-9.685631394386292E-001,1.430510282516480E-001,8.522248268127441E-002,3.290791064500809E-002,-9.685631394386292E-001,1.430510282516480E-001,
1.083233333333334E+009,9.581401199102402E-002,1.964084617793560E-002,-9.665986895561218E-001,1.645890176296234E-001,9.581401199102402E-002,1.964084617793560E-002,-9.665986895561218E-001,1.645890176296234E-001,
1.091600000000000E+009,1.016454845666885E-001,8.075213059782982E-003,-9.572356939315796E-001,1.860780268907547E-001,1.016454845666885E-001,8.075213059782982E-003,-9.572356939315796E-001,1.860780268907547E-001,
1.099966666666667E+009,1.026659160852432E-001,-7.934954017400742E-003,-9.598971605300903E-001,2.238512188196182E-001,1.026659160852432E-001,-7.934954017400742E-003,-9.598971605300903E-001,2.238512188196182E-001,
1.108333333333334E+009,9.338399022817612E-002,-1.933736912906170E-002,-9.387071132659912E-001,2.272279709577560E-001,9.338399022817612E-002,-1.933736912906170E-002,-9.387071132659912E-001,2.272279709577560E-001,
1.116700000000000E+009,7.916023582220078E-002,-2.066276222467423E-002,-9.384771585464478E-001,2.712056338787079E-001,7.916023582220078E-002,-2.066276222467423E-002,-9.384771585464478E-001,2.712056338787079E-001,
1.125066666666667E+009,6.710962206125259E-002,-2.098022960126400E-002,-9.434517621994019E-001,2.814108431339264E-001,6.710962206125259E-002,-2.098022960126400E-002,-9.434517621994019E-001,2.814108431339264E-001,
1.133433333333334E+009,5.792512372136116E-002,-1.025400124490261E-002,-9.440307021141052E-001,3.068409562110901E-001,5.792512372136116E-002,-1.025400124490261E-002,-9.440307021141052E-001,3.068409562110901E-001,
1.141800000000000E+009,5.681666359305382E-002,-2.054907672572881E-004,-9.166036248207092E-001,3.278817832469940E-001,5.681666359305382E-002,-2.054907672572881E-004,-9.166036248207092E-001,3.278817832469940E-001,
1.150166666666667E+009,6.324278563261032E-002,1.238256134092808E-002,-8.989323377609253E-001,3.591052889823914E-001,6.324278563261032E-002,1.238256134092808E-002,-8.989323377609253E-001,3.591052889823914E-001,
1.158533333333334E+009,7.690897583961487E-002,1.745733805000782E-002,-9.009446501731873E-001,3.842420578002930E-001,7.690897583961487E-002,1.745733805000782E-002,-9.009446501731873E-001,3.842420578002930E-001,
1.166900000000000E+009,9.536231309175491E-002,1.367801427841187E-002,-8.904381990432739E-001,4.178674221038818E-001,9.536231309175491E-002,1.367801427841187E-002,-8.904381990432739E-001,4.178674221038818E-001,
1.175266666666667E+009,1.085538864135742E-001,-5.940548144280911E-004,-8.792653679847717E-001,4.225272834300995E-001,1.085538864135742E-001,-5.940548144280911E-004,-8.792653679847717E-001,4.225272834300995E-001,
1.183633333333334E+009,1.182890906929970E-001,-1.922119781374931E-002,-8.667600154876709E-001,4.601844847202301E-001,1.182890906929970E-001,-1.922119781374931E-002,-8.667600154876709E-001,4.601844847202301E-001,
1.192000000000000E+009,1.176284328103066E-001,-4.173865541815758E-002,-8.564403653144836E-001,4.662601351737976E-001,1.176284328103066E-001,-4.173865541815758E-002,-8.564403653144836E-001,4.662601351737976E-001,
1.200366666666667E+009,1.057089865207672E-001,-5.842986702919006E-002,-8.471763730049133E-001,4.929346442222595E-001,1.057089865207672E-001,-5.842986702919006E-002,-8.471763730049133E-001,4.929346442222595E-001,
1.208733333333334E+009,8.961937576532364E-002,-6.898227334022522E-002,-8.421764373779297E-001,5.093628168106079E-001,8.961937576532364E-002,-6.898227334022522E-002,-8.421764373779297E-001,5.093628168106079E-001,
1.217100000000000E+009,7.069754600524902E-002,-6.687521934509277E-002,-8.274508118629456E-001,5.297962427139282E-001,7.069754600524902E-002,-6.687521934509277E-002,-8.274508118629456E-001,5.297962427139282E-001,
1.225466666666667E+009,5.840803310275078E-002,-5.978421121835709E-002,-8.032014966011047E-001,5.562906861305237E-001,5.840803310275078E-002,-5.978421121835709E-002,-8.032014966011047E-001,5.562906861305237E-001,
1.233833333333334E+009,5.121209472417831E-002,-4.447991773486137E-002,-7.872700691223145E-001,5.751963257789612E-001,5.121209472417831E-002,-4.447991773486137E-002,-7.872700691223145E-001,5.751963257789612E-001,
1.242200000000000E+009,5.428663641214371E-002,-2.975429408252239E-002,-7.730464339256287E-001,5.891725420951843E-001,5.428663641214371E-002,-2.975429408252239E-002,-7.730464339256287E-001,5.891725420951843E-001,
1.250566666666667E+009,6.795494258403778E-002,-2.249263226985931E-002,-7.454383373260498E-001,6.173000335693359E-001,6.795494258403778E-002,-2.249263226985931E-002,-7.454383373260498E-001,6.173000335693359E-001,
1.258933333333334E+009,8.382086455821991E-002,-2.462850883603096E-002,-7.546544075012207E-001,6.379966139793396E-001,8.382086455821991E-002,-2.462850883603096E-002,-7.546544075012207E-001,6.379966139793396E-001,
1.267300000000000E+009,9.873721748590469E-002,-3.871934115886688E-002,-7.325432896614075E-001,6.503738164901733E-001,9.873721748590469E-002,-3.871934115886688E-002,-7.325432896614075E-001,6.503738164901733E-001,
1.275666666666667E+009,1.064420789480209E-001,-5.917562916874886E-002,-6.982139945030212E-001,6.723296046257019E-001,1.064420789480209E-001,-5.917562916874886E-002,-6.982139945030212E-001,6.723296046257019E-001,
1.284033333333334E+009,1.027093082666397E-001,-8.296999335289002E-002,-6.900292634963989E-001,6.902397871017456E-001,1.027093082666397E-001,-8.296999335289002E-002,-6.900292634963989E-001,6.902397871017456E-001,
1.292400000000000E+009,8.915513008832932E-002,-1.025997102260590E-001,-6.786009073257446E-001,7.047550678253174E-001,8.915513008832932E-002,-1.025997102260590E-001,-6.786009073257446E-001,7.047550678253174E-001,
1.300766666666667E+009,6.925228238105774E-002,-1.115076988935471E-001,-6.558319926261902E-001,7.194425463676453E-001,6.925228238105774E-002,-1.115076988935471E-001,-6.558319926261902E-001,7.194425463676453E-001,
1.309133333333334E+009,4.583153128623962E-002,-1.107006222009659E-001,-6.447415947914124E-001,7.361946702003479E-001,4.583153128623962E-002,-1.107006222009659E-001,-6.447415947914124E-001,7.361946702003479E-001,
1.317500000000000E+009,3.152560070157051E-002,-1.002351194620132E-001,-6.212031245231628E-001,7.507979273796082E-001,3.152560070157051E-002,-1.002351194620132E-001,-6.212031245231628E-001,7.507979273796082E-001,
1.325866666666667E+009,2.415427006781101E-002,-8.178892731666565E-002,-6.066154837608337E-001,7.662466168403626E-001,2.415427006781101E-002,-8.178892731666565E-002,-6.066154837608337E-001,7.662466168403626E-001,
1.334233333333334E+009,2.891755662858486E-002,-6.599071621894836E-002,-5.782388448715210E-001,7.876864671707153E-001,2.891755662858486E-002,-6.599071621894836E-002,-5.782388448715210E-001,7.876864671707153E-001,
1.342600000000000E+009,4.033784940838814E-002,-5.905081704258919E-002,-5.582637190818787E-001,8.069384098052979E-001,4.033784940838814E-002,-5.905081704258919E-002,-5.582637190818787E-001,8.069384098052979E-001,
1.350966666666667E+009,5.585619062185288E-002,-6.248397380113602E-002,-5.265300869941711E-001,8.306837081909180E-001,5.585619062185288E-002,-6.248397380113602E-002,-5.265300869941711E-001,8.306837081909180E-001,
1.359333333333334E+009,6.901546567678452E-002,-7.599385827779770E-002,-5.145395398139954E-001,8.318839073181152E-001,6.901546567678452E-002,-7.599385827779770E-002,-5.145395398139954E-001,8.318839073181152E-001,
1.367700000000000E+009,6.780503690242767E-002,-9.776435047388077E-002,-4.962598085403442E-001,8.397781252861023E-001,6.780503690242767E-002,-9.776435047388077E-002,-4.962598085403442E-001,8.397781252861023E-001,
1.376066666666667E+009,5.962635576725006E-002,-1.174993962049484E-001,-4.804370105266571E-001,8.543431162834168E-001,5.962635576725006E-002,-1.174993962049484E-001,-4.804370105266571E-001,8.543431162834168E-001,
1.384433333333334E+009,3.953347355127335E-002,-1.353257149457932E-001,-4.550061821937561E-001,8.741888403892517E-001,3.953347355127335E-002,-1.353257149457932E-001,-4.550061821937561E-001,8.741888403892517E-001,
1.392800000000000E+009,1.539054233580828E-002,-1.390706002712250E-001,-4.424920976161957E-001,8.680620193481445E-001,1.539054233580828E-002,-1.390706002712250E-001,-4.424920976161957E-001,8.680620193481445E-001,
1.401166666666667E+009,-6.803944706916809E-003,-1.312125027179718E-001,-4.196356534957886E-001,8.863145112991333E-001,-6.803944706916809E-003,-1.312125027179718E-001,-4.196356534957886E-001,8.863145112991333E-001,
1.409533333333334E+009,-2.225559577345848E-002,-1.146788224577904E-001,-3.895938694477081E-001,8.976640701293945E-001,-2.225559577345848E-002,-1.146788224577904E-001,-3.895938694477081E-001,8.976640701293945E-001,
1.417900000000000E+009,-2.615810371935368E-002,-9.091229736804962E-002,-3.775163590908051E-001,8.932582139968872E-001,-2.615810371935368E-002,-9.091229736804962E-002,-3.775163590908051E-001,8.932582139968872E-001,
1.426266666666667E+009,-1.748701743781567E-002,-7.467619329690933E-002,-3.448998928070068E-001,9.193090200424194E-001,-1.748701743781567E-002,-7.467619329690933E-002,-3.448998928070068E-001,9.193090200424194E-001,
1.434633333333334E+009,-1.158572034910321E-003,-6.450370699167252E-002,-3.110284209251404E-001,9.292520284652710E-001,-1.158572034910321E-003,-6.450370699167252E-002,-3.110284209251404E-001,9.292520284652710E-001,
1.443000000000000E+009,1.566210947930813E-002,-6.671497225761414E-002,-2.934642732143402E-001,9.334728121757507E-001,1.566210947930813E-002,-6.671497225761414E-002,-2.934642732143402E-001,9.334728121757507E-001,
1.451366666666667E+009,2.837207354605198E-002,-7.954815775156021E-002,-2.603489458560944E-001,9.360829591751099E-001,2.837207354605198E-002,-7.954815775156021E-002,-2.603489458560944E-001,9.360829591751099E-001,
1.459733333333334E+009,3.193172812461853E-002,-1.021351739764214E-001,-2.432891577482224E-001,9.384812116622925E-001,3.193172812461853E-002,-1.021351739764214E-001,-2.432891577482224E-001,9.384812116622925E-001,
