% Version 1.00
%
%freq[Hz],re:Trc1_S11,im:Trc1_S11,re:Trc2_S21,im:Trc2_S21,re:Trc3_S11,im:Trc3_S11,re:Trc4_S21,im:Trc4_S21,
6.900000000000000E+008,-3.823676705360413E-002,6.205402314662933E-002,-5.045705437660217E-001,-8.429914712905884E-001,-3.823676705360413E-002,6.205402314662933E-002,-5.045705437660217E-001,-8.429914712905884E-001,
6.983666666666666E+008,-2.791763469576836E-002,6.326063722372055E-002,-5.281115770339966E-001,-8.345592021942139E-001,-2.791763469576836E-002,6.326063722372055E-002,-5.281115770339966E-001,-8.345592021942139E-001,
7.067333333333334E+008,-2.079902775585651E-002,5.861318111419678E-002,-5.730909705162048E-001,-7.722078561782837E-001,-2.079902775585651E-002,5.861318111419678E-002,-5.730909705162048E-001,-7.722078561782837E-001,
7.151000000000000E+008,-1.926704496145248E-002,5.184965580701828E-002,-5.928321480751038E-001,-7.858086228370667E-001,-1.926704496145248E-002,5.184965580701828E-002,-5.928321480751038E-001,-7.858086228370667E-001,
7.234666666666666E+008,-2.166755683720112E-002,4.732811823487282E-002,-6.042264699935913E-001,-7.734202742576599E-001,-2.166755683720112E-002,4.732811823487282E-002,-6.042264699935913E-001,-7.734202742576599E-001,
7.318333333333334E+008,-2.748057059943676E-002,4.611695185303688E-002,-6.196088194847107E-001,-7.714510560035706E-001,-2.748057059943676E-002,4.611695185303688E-002,-6.196088194847107E-001,-7.714510560035706E-001,
7.402000000000000E+008,-3.301938250660896E-002,4.731375724077225E-002,-6.637428402900696E-001,-7.533397078514099E-001,-3.301938250660896E-002,4.731375724077225E-002,-6.637428402900696E-001,-7.533397078514099E-001,
7.485666666666666E+008,-3.855514153838158E-002,5.413255840539932E-002,-6.626028418540955E-001,-7.490325570106506E-001,-3.855514153838158E-002,5.413255840539932E-002,-6.626028418540955E-001,-7.490325570106506E-001,
7.569333333333334E+008,-3.853569552302361E-002,6.262783706188202E-002,-6.699134707450867E-001,-7.282083630561829E-001,-3.853569552302361E-002,6.262783706188202E-002,-6.699134707450867E-001,-7.282083630561829E-001,
7.653000000000000E+008,-3.225406631827354E-002,7.042256742715836E-002,-6.890037059783936E-001,-7.081986665725708E-001,-3.225406631827354E-002,7.042256742715836E-002,-6.890037059783936E-001,-7.081986665725708E-001,
7.736666666666666E+008,-2.444772981107235E-002,7.664111256599426E-002,-7.200264930725098E-001,-6.826734542846680E-001,-2.444772981107235E-002,7.664111256599426E-002,-7.200264930725098E-001,-6.826734542846680E-001,
7.820333333333334E+008,-1.414952892810106E-002,7.931507378816605E-002,-7.318317890167236E-001,-6.688790321350098E-001,-1.414952892810106E-002,7.931507378816605E-002,-7.318317890167236E-001,-6.688790321350098E-001,
7.904000000000000E+008,-2.818096429109573E-003,7.824598997831345E-002,-7.358285784721375E-001,-6.480844616889954E-001,-2.818096429109573E-003,7.824598997831345E-002,-7.358285784721375E-001,-6.480844616889954E-001,
7.987666666666666E+008,2.953531686216593E-003,7.283100485801697E-002,-7.701348066329956E-001,-6.256777644157410E-001,2.953531686216593E-003,7.283100485801697E-002,-7.701348066329956E-001,-6.256777644157410E-001,
8.071333333333334E+008,6.930729374289513E-003,6.814445555210114E-002,-7.755444645881653E-001,-6.156167387962341E-001,6.930729374289513E-003,6.814445555210114E-002,-7.755444645881653E-001,-6.156167387962341E-001,
8.155000000000000E+008,2.206900622695684E-003,6.239782646298409E-002,-7.983795404434204E-001,-5.933207273483276E-001,2.206900622695684E-003,6.239782646298409E-002,-7.983795404434204E-001,-5.933207273483276E-001,
8.238666666666666E+008,-1.763571053743362E-004,5.886106193065643E-002,-7.999363541603088E-001,-5.639756917953491E-001,-1.763571053743362E-004,5.886106193065643E-002,-7.999363541603088E-001,-5.639756917953491E-001,
8.322333333333334E+008,-6.078941747546196E-003,6.005245447158814E-002,-8.212323784828186E-001,-5.441235303878784E-001,-6.078941747546196E-003,6.005245447158814E-002,-8.212323784828186E-001,-5.441235303878784E-001,
8.406000000000000E+008,-1.006225869059563E-002,6.419801712036133E-002,-8.319990634918213E-001,-5.309795737266541E-001,-1.006225869059563E-002,6.419801712036133E-002,-8.319990634918213E-001,-5.309795737266541E-001,
8.489666666666668E+008,-1.230575237423182E-002,7.196614891290665E-002,-8.428246378898621E-001,-5.152238607406616E-001,-1.230575237423182E-002,7.196614891290665E-002,-8.428246378898621E-001,-5.152238607406616E-001,
8.573333333333334E+008,-9.239195846021175E-003,7.947111129760742E-002,-8.599370121955872E-001,-4.741395413875580E-001,-9.239195846021175E-003,7.947111129760742E-002,-8.599370121955872E-001,-4.741395413875580E-001,
8.657000000000000E+008,1.104348804801703E-003,8.646759390830994E-002,-8.763895630836487E-001,-4.527156054973602E-001,1.104348804801703E-003,8.646759390830994E-002,-8.763895630836487E-001,-4.527156054973602E-001,
8.740666666666668E+008,9.977734647691250E-003,8.865160495042801E-002,-8.732313513755798E-001,-4.408793151378632E-001,9.977734647691250E-003,8.865160495042801E-002,-8.732313513755798E-001,-4.408793151378632E-001,
8.824333333333334E+008,2.102285437285900E-002,8.754266053438187E-002,-8.907992839813232E-001,-4.254312813282013E-001,2.102285437285900E-002,8.754266053438187E-002,-8.907992839813232E-001,-4.254312813282013E-001,
8.908000000000000E+008,3.122561611235142E-002,8.245614171028137E-002,-8.908483982086182E-001,-3.940882980823517E-001,3.122561611235142E-002,8.245614171028137E-002,-8.908483982086182E-001,-3.940882980823517E-001,
8.991666666666668E+008,3.583835065364838E-002,7.517343014478684E-002,-9.049208164215088E-001,-3.655948936939240E-001,3.583835065364838E-002,7.517343014478684E-002,-9.049208164215088E-001,-3.655948936939240E-001,
9.075333333333334E+008,3.748438134789467E-002,6.866374611854553E-002,-9.361545443534851E-001,-3.465774953365326E-001,3.748438134789467E-002,6.866374611854553E-002,-9.361545443534851E-001,-3.465774953365326E-001,
9.159000000000000E+008,3.599931299686432E-002,6.596688181161881E-002,-9.417101144790649E-001,-3.186831176280975E-001,3.599931299686432E-002,6.596688181161881E-002,-9.417101144790649E-001,-3.186831176280975E-001,
9.242666666666668E+008,3.212163597345352E-002,6.270251423120499E-002,-9.458627104759216E-001,-3.035780787467957E-001,3.212163597345352E-002,6.270251423120499E-002,-9.458627104759216E-001,-3.035780787467957E-001,
9.326333333333334E+008,2.584936842322350E-002,6.360146403312683E-002,-9.676128625869751E-001,-2.795886397361755E-001,2.584936842322350E-002,6.360146403312683E-002,-9.676128625869751E-001,-2.795886397361755E-001,
9.410000000000000E+008,2.373714186251164E-002,6.799421459436417E-002,-9.588780999183655E-001,-2.459424734115601E-001,2.373714186251164E-002,6.799421459436417E-002,-9.588780999183655E-001,-2.459424734115601E-001,
9.493666666666668E+008,2.422367967665196E-002,7.408856600522995E-002,-9.573455452919006E-001,-2.278048098087311E-001,2.422367967665196E-002,7.408856600522995E-002,-9.573455452919006E-001,-2.278048098087311E-001,
9.577333333333334E+008,2.818097360432148E-002,8.198915421962738E-002,-9.732332229614258E-001,-2.036396116018295E-001,2.818097360432148E-002,8.198915421962738E-002,-9.732332229614258E-001,-2.036396116018295E-001,
9.661000000000000E+008,3.870975598692894E-002,8.820278942584992E-002,-9.697948694229126E-001,-1.792903095483780E-001,3.870975598692894E-002,8.820278942584992E-002,-9.697948694229126E-001,-1.792903095483780E-001,
9.744666666666668E+008,4.778870195150375E-002,8.697289228439331E-002,-9.748842716217041E-001,-1.550301760435104E-001,4.778870195150375E-002,8.697289228439331E-002,-9.748842716217041E-001,-1.550301760435104E-001,
9.828333333333334E+008,6.223869323730469E-002,8.291031420230866E-002,-9.772940874099731E-001,-1.344060748815537E-001,6.223869323730469E-002,8.291031420230866E-002,-9.772940874099731E-001,-1.344060748815537E-001,
9.912000000000000E+008,7.052849978208542E-002,7.570631802082062E-002,-9.763852357864380E-001,-1.075051352381706E-001,7.052849978208542E-002,7.570631802082062E-002,-9.763852357864380E-001,-1.075051352381706E-001,
9.995666666666668E+008,7.760947197675705E-002,6.533066183328629E-002,-9.911640286445618E-001,-7.051981240510941E-002,7.760947197675705E-002,6.533066183328629E-002,-9.911640286445618E-001,-7.051981240510941E-002,
1.007933333333333E+009,7.857071608304977E-002,5.548679456114769E-002,-9.891884922981262E-001,-5.597164109349251E-002,7.857071608304977E-002,5.548679456114769E-002,-9.891884922981262E-001,-5.597164109349251E-002,
1.016300000000000E+009,7.389695197343826E-002,4.890757799148560E-002,-9.910661578178406E-001,-2.923071943223476E-002,7.389695197343826E-002,4.890757799148560E-002,-9.910661578178406E-001,-2.923071943223476E-002,
1.024666666666667E+009,6.770686060190201E-002,4.246997460722923E-002,-9.905309677124023E-001,3.998438827693462E-003,6.770686060190201E-002,4.246997460722923E-002,-9.905309677124023E-001,3.998438827693462E-003,
1.033033333333333E+009,6.196470186114311E-002,4.475044086575508E-002,-9.901457428932190E-001,2.303057722747326E-002,6.196470186114311E-002,4.475044086575508E-002,-9.901457428932190E-001,2.303057722747326E-002,
1.041400000000000E+009,5.729072913527489E-002,4.983787983655930E-002,-9.748006463050842E-001,6.201134622097015E-002,5.729072913527489E-002,4.983787983655930E-002,-9.748006463050842E-001,6.201134622097015E-002,
1.049766666666667E+009,5.817306786775589E-002,5.700719729065895E-002,-9.863882660865784E-001,8.178506046533585E-002,5.817306786775589E-002,5.700719729065895E-002,-9.863882660865784E-001,8.178506046533585E-002,
1.058133333333333E+009,6.490898877382278E-002,6.242633238434792E-002,-9.795814752578735E-001,1.004143357276917E-001,6.490898877382278E-002,6.242633238434792E-002,-9.795814752578735E-001,1.004143357276917E-001,
1.066500000000000E+009,7.713858783245087E-002,6.485841423273087E-002,-9.855163693428040E-001,1.379714459180832E-001,7.713858783245087E-002,6.485841423273087E-002,-9.855163693428040E-001,1.379714459180832E-001,
1.074866666666667E+009,8.781629055738449E-002,6.113712117075920E-002,-9.670404791831970E-001,1.562332063913345E-001,8.781629055738449E-002,6.113712117075920E-002,-9.670404791831970E-001,1.562332063913345E-001,
1.083233333333334E+009,9.964231401681900E-002,4.825843125581741E-002,-9.657826423645020E-001,1.776927560567856E-001,9.964231401681900E-002,4.825843125581741E-002,-9.657826423645020E-001,1.776927560567856E-001,
1.091600000000000E+009,1.061429083347321E-001,3.708119317889214E-002,-9.560538530349731E-001,1.980756819248200E-001,1.061429083347321E-001,3.708119317889214E-002,-9.560538530349731E-001,1.980756819248200E-001,
1.099966666666667E+009,1.084086149930954E-001,2.152291499078274E-002,-9.591168165206909E-001,2.362444549798966E-001,1.084086149930954E-001,2.152291499078274E-002,-9.591168165206909E-001,2.362444549798966E-001,
1.108333333333334E+009,9.988293796777725E-002,1.004321500658989E-002,-9.381828308105469E-001,2.405095398426056E-001,9.988293796777725E-002,1.004321500658989E-002,-9.381828308105469E-001,2.405095398426056E-001,
1.116700000000000E+009,8.668510615825653E-002,8.050114847719669E-003,-9.360976219177246E-001,2.845343947410584E-001,8.668510615825653E-002,8.050114847719669E-003,-9.360976219177246E-001,2.845343947410584E-001,
1.125066666666667E+009,7.566334307193756E-002,8.342158049345017E-003,-9.411964416503906E-001,2.949360013008118E-001,7.566334307193756E-002,8.342158049345017E-003,-9.411964416503906E-001,2.949360013008118E-001,
1.133433333333334E+009,6.790734827518463E-002,1.909301802515984E-002,-9.407776594161987E-001,3.208321928977966E-001,6.790734827518463E-002,1.909301802515984E-002,-9.407776594161987E-001,3.208321928977966E-001,
1.141800000000000E+009,6.820043921470642E-002,2.931829914450645E-002,-9.114984869956970E-001,3.416012525558472E-001,6.820043921470642E-002,2.931829914450645E-002,-9.114984869956970E-001,3.416012525558472E-001,
1.150166666666667E+009,7.602316886186600E-002,4.194493964314461E-002,-8.947992324829102E-001,3.729518353939056E-001,7.602316886186600E-002,4.194493964314461E-002,-8.947992324829102E-001,3.729518353939056E-001,
1.158533333333334E+009,9.076137095689774E-002,4.692233726382256E-002,-8.959332704544067E-001,3.967233896255493E-001,9.076137095689774E-002,4.692233726382256E-002,-8.959332704544067E-001,3.967233896255493E-001,
1.166900000000000E+009,1.105454787611961E-001,4.312454909086227E-002,-8.850761055946350E-001,4.304236769676209E-001,1.105454787611961E-001,4.312454909086227E-002,-8.850761055946350E-001,4.304236769676209E-001,
1.175266666666667E+009,1.247418150305748E-001,2.812850847840309E-002,-8.742188811302185E-001,4.344459176063538E-001,1.247418150305748E-001,2.812850847840309E-002,-8.742188811302185E-001,4.344459176063538E-001,
1.183633333333334E+009,1.354362964630127E-001,9.272173978388310E-003,-8.617258667945862E-001,4.709329605102539E-001,1.354362964630127E-001,9.272173978388310E-003,-8.617258667945862E-001,4.709329605102539E-001,
1.192000000000000E+009,1.356337368488312E-001,-1.339866966009140E-002,-8.515529036521912E-001,4.774898290634155E-001,1.356337368488312E-001,-1.339866966009140E-002,-8.515529036521912E-001,4.774898290634155E-001,
1.200366666666667E+009,1.241458430886269E-001,-3.039908781647682E-002,-8.421980142593384E-001,5.050454735755920E-001,1.241458430886269E-001,-3.039908781647682E-002,-8.421980142593384E-001,5.050454735755920E-001,
1.208733333333334E+009,1.086758151650429E-001,-4.106651246547699E-002,-8.357785344123840E-001,5.218370556831360E-001,1.086758151650429E-001,-4.106651246547699E-002,-8.357785344123840E-001,5.218370556831360E-001,
1.217100000000000E+009,9.122369438409805E-002,-3.903703391551971E-002,-8.223263621330261E-001,5.420734882354736E-001,9.122369438409805E-002,-3.903703391551971E-002,-8.223263621330261E-001,5.420734882354736E-001,
1.225466666666667E+009,8.061712980270386E-002,-3.247647732496262E-002,-7.971805930137634E-001,5.694423317909241E-001,8.061712980270386E-002,-3.247647732496262E-002,-7.971805930137634E-001,5.694423317909241E-001,
1.233833333333334E+009,7.468315958976746E-002,-1.726088486611843E-002,-7.801005840301514E-001,5.884481668472290E-001,7.468315958976746E-002,-1.726088486611843E-002,-7.801005840301514E-001,5.884481668472290E-001,
1.242200000000000E+009,7.946056127548218E-002,-2.808316610753536E-003,-7.648016810417175E-001,6.021161675453186E-001,7.946056127548218E-002,-2.808316610753536E-003,-7.648016810417175E-001,6.021161675453186E-001,
1.250566666666667E+009,9.471569210290909E-002,3.747037146240473E-003,-7.370327115058899E-001,6.289201378822327E-001,9.471569210290909E-002,3.747037146240473E-003,-7.370327115058899E-001,6.289201378822327E-001,
1.258933333333334E+009,1.119187027215958E-001,5.432542529888451E-004,-7.452766299247742E-001,6.490070819854736E-001,1.119187027215958E-001,5.432542529888451E-004,-7.452766299247742E-001,6.490070819854736E-001,
1.267300000000000E+009,1.279044449329376E-001,-1.448029559105635E-002,-7.231470942497253E-001,6.614549160003662E-001,1.279044449329376E-001,-1.448029559105635E-002,-7.231470942497253E-001,6.614549160003662E-001,
1.275666666666667E+009,1.362884789705277E-001,-3.559907153248787E-002,-6.886266469955444E-001,6.822032332420349E-001,1.362884789705277E-001,-3.559907153248787E-002,-6.886266469955444E-001,6.822032332420349E-001,
1.284033333333334E+009,1.333384811878204E-001,-6.013924628496170E-002,-6.822285652160645E-001,6.996923089027405E-001,1.333384811878204E-001,-6.013924628496170E-002,-6.822285652160645E-001,6.996923089027405E-001,
1.292400000000000E+009,1.204356327652931E-001,-8.024530112743378E-002,-6.702767014503479E-001,7.136003971099854E-001,1.204356327652931E-001,-8.024530112743378E-002,-6.702767014503479E-001,7.136003971099854E-001,
1.300766666666667E+009,1.007611677050591E-001,-8.955266326665878E-002,-6.475879549980164E-001,7.297106981277466E-001,1.007611677050591E-001,-8.955266326665878E-002,-6.475879549980164E-001,7.297106981277466E-001,
1.309133333333334E+009,7.830449193716049E-002,-8.965524286031723E-002,-6.364499926567078E-001,7.465661168098450E-001,7.830449193716049E-002,-8.965524286031723E-002,-6.364499926567078E-001,7.465661168098450E-001,
1.317500000000000E+009,6.557042151689529E-002,-7.937674224376679E-002,-6.124488115310669E-001,7.614421844482422E-001,6.557042151689529E-002,-7.937674224376679E-002,-6.124488115310669E-001,7.614421844482422E-001,
1.325866666666667E+009,5.956803634762764E-002,-6.207974627614021E-002,-5.965183377265930E-001,7.772030234336853E-001,5.956803634762764E-002,-6.207974627614021E-002,-5.965183377265930E-001,7.772030234336853E-001,
1.334233333333334E+009,6.582475453615189E-002,-4.740764573216438E-002,-5.664210915565491E-001,7.984333634376526E-001,6.582475453615189E-002,-4.740764573216438E-002,-5.664210915565491E-001,7.984333634376526E-001,
1.342600000000000E+009,7.877836376428604E-002,-4.182723164558411E-002,-5.467794537544251E-001,8.165223598480225E-001,7.877836376428604E-002,-4.182723164558411E-002,-5.467794537544251E-001,8.165223598480225E-001,
1.350966666666667E+009,9.528463333845139E-002,-4.674207046627998E-002,-5.140739679336548E-001,8.395982384681702E-001,9.528463333845139E-002,-4.674207046627998E-002,-5.140739679336548E-001,8.395982384681702E-001,
1.359333333333334E+009,1.093766987323761E-001,-6.101069599390030E-002,-5.022697448730469E-001,8.398398756980896E-001,1.093766987323761E-001,-6.101069599390030E-002,-5.022697448730469E-001,8.398398756980896E-001,
1.367700000000000E+009,1.083498671650887E-001,-8.428723365068436E-002,-4.848746657371521E-001,8.469510674476624E-001,1.083498671650887E-001,-8.428723365068436E-002,-4.848746657371521E-001,8.469510674476624E-001,
1.376066666666667E+009,1.006901189684868E-001,-1.049464195966721E-001,-4.696206450462341E-001,8.614508509635925E-001,1.006901189684868E-001,-1.049464195966721E-001,-4.696206450462341E-001,8.614508509635925E-001,
1.384433333333334E+009,8.128507435321808E-002,-1.234919205307961E-001,-4.444032907485962E-001,8.821346759796143E-001,8.128507435321808E-002,-1.234919205307961E-001,-4.444032907485962E-001,8.821346759796143E-001,
1.392800000000000E+009,5.781083926558495E-002,-1.277728825807571E-001,-4.321966767311096E-001,8.757573366165161E-001,5.781083926558495E-002,-1.277728825807571E-001,-4.321966767311096E-001,8.757573366165161E-001,
1.401166666666667E+009,3.639862686395645E-002,-1.206013187766075E-001,-4.082901775836945E-001,8.951312899589539E-001,3.639862686395645E-002,-1.206013187766075E-001,-4.082901775836945E-001,8.951312899589539E-001,
1.409533333333334E+009,2.150129899382591E-002,-1.052782386541367E-001,-3.777439594268799E-001,9.071241617202759E-001,2.150129899382591E-002,-1.052782386541367E-001,-3.777439594268799E-001,9.071241617202759E-001,
1.417900000000000E+009,1.876971311867237E-002,-8.286089450120926E-002,-3.643008768558502E-001,9.023624062538147E-001,1.876971311867237E-002,-8.286089450120926E-002,-3.643008768558502E-001,9.023624062538147E-001,
1.426266666666667E+009,2.896116860210896E-002,-6.860486418008804E-002,-3.306216895580292E-001,9.273488521575928E-001,2.896116860210896E-002,-6.860486418008804E-002,-3.306216895580292E-001,9.273488521575928E-001,
1.434633333333334E+009,4.624097794294357E-002,-6.018045172095299E-002,-2.958096563816071E-001,9.363585114479065E-001,4.624097794294357E-002,-6.018045172095299E-002,-2.958096563816071E-001,9.363585114479065E-001,
1.443000000000000E+009,6.347651779651642E-002,-6.460025906562805E-002,-2.784286141395569E-001,9.396849870681763E-001,6.347651779651642E-002,-6.460025906562805E-002,-2.784286141395569E-001,9.396849870681763E-001,
1.451366666666667E+009,7.646434009075165E-002,-7.925311475992203E-002,-2.457626312971115E-001,9.416509270668030E-001,7.646434009075165E-002,-7.925311475992203E-002,-2.457626312971115E-001,9.416509270668030E-001,
1.459733333333334E+009,7.989558577537537E-002,-1.034421473741531E-001,-2.279929220676422E-001,9.426959156990051E-001,7.989558577537537E-002,-1.034421473741531E-001,-2.279929220676422E-001,9.426959156990051E-001,
