% Version 1.00
%
%freq[Hz],re:Trc1_S11,im:Trc1_S11,re:Trc2_S21,im:Trc2_S21,re:Trc3_S11,im:Trc3_S11,re:Trc4_S21,im:Trc4_S21,
6.900000000000000E+008,-1.673480495810509E-002,1.597923971712589E-002,-4.664125740528107E-001,-8.709303140640259E-001,-1.673480495810509E-002,1.597923971712589E-002,-4.664125740528107E-001,-8.709303140640259E-001,
6.983666666666666E+008,-7.200953084975481E-003,1.664446480572224E-002,-4.902538657188416E-001,-8.633124828338623E-001,-7.200953084975481E-003,1.664446480572224E-002,-4.902538657188416E-001,-8.633124828338623E-001,
7.067333333333334E+008,-6.795066292397678E-004,1.158840209245682E-002,-5.359789729118347E-001,-8.028962612152100E-001,-6.795066292397678E-004,1.158840209245682E-002,-5.359789729118347E-001,-8.028962612152100E-001,
7.151000000000000E+008,-2.746607933659107E-004,3.494040574878454E-003,-5.545269250869751E-001,-8.174075484275818E-001,-2.746607933659107E-004,3.494040574878454E-003,-5.545269250869751E-001,-8.174075484275818E-001,
7.234666666666666E+008,-3.632523585110903E-003,-2.342807361856103E-003,-5.672945380210877E-001,-8.067420125007629E-001,-3.632523585110903E-003,-2.342807361856103E-003,-5.672945380210877E-001,-8.067420125007629E-001,
7.318333333333334E+008,-1.085295062512159E-002,-5.648682359606028E-003,-5.811103582382202E-001,-8.055973649024963E-001,-1.085295062512159E-002,-5.648682359606028E-003,-5.811103582382202E-001,-8.055973649024963E-001,
7.402000000000000E+008,-1.784742251038551E-002,-5.997496191412211E-003,-6.258929967880249E-001,-7.904427647590637E-001,-1.784742251038551E-002,-5.997496191412211E-003,-6.258929967880249E-001,-7.904427647590637E-001,
7.485666666666666E+008,-2.590423449873924E-002,-8.127375622279942E-004,-6.242400407791138E-001,-7.872260808944702E-001,-2.590423449873924E-002,-8.127375622279942E-004,-6.242400407791138E-001,-7.872260808944702E-001,
7.569333333333334E+008,-2.836457267403603E-002,6.238735746592283E-003,-6.333085894584656E-001,-7.661009430885315E-001,-2.836457267403603E-002,6.238735746592283E-003,-6.333085894584656E-001,-7.661009430885315E-001,
7.653000000000000E+008,-2.483593672513962E-002,1.330786384642124E-002,-6.518983244895935E-001,-7.481805682182312E-001,-2.483593672513962E-002,1.330786384642124E-002,-6.518983244895935E-001,-7.481805682182312E-001,
7.736666666666666E+008,-1.860413141548634E-002,1.936513558030129E-002,-6.860414743423462E-001,-7.234260439872742E-001,-1.860413141548634E-002,1.936513558030129E-002,-6.860414743423462E-001,-7.234260439872742E-001,
7.820333333333334E+008,-1.035065390169621E-002,2.201697230339050E-002,-6.978777050971985E-001,-7.118774056434631E-001,-1.035065390169621E-002,2.201697230339050E-002,-6.978777050971985E-001,-7.118774056434631E-001,
7.904000000000000E+008,-6.032779347151518E-004,2.092426083981991E-002,-7.028815746307373E-001,-6.901357769966126E-001,-6.032779347151518E-004,2.092426083981991E-002,-7.028815746307373E-001,-6.901357769966126E-001,
7.987666666666666E+008,4.034353420138359E-003,1.556740142405033E-002,-7.384873032569885E-001,-6.718783378601074E-001,4.034353420138359E-003,1.556740142405033E-002,-7.384873032569885E-001,-6.718783378601074E-001,
8.071333333333334E+008,6.736211478710175E-003,1.029927469789982E-002,-7.425474524497986E-001,-6.604626178741455E-001,6.736211478710175E-003,1.029927469789982E-002,-7.425474524497986E-001,-6.604626178741455E-001,
8.155000000000000E+008,1.190845388919115E-003,3.615790512412787E-003,-7.670009732246399E-001,-6.402570605278015E-001,1.190845388919115E-003,3.615790512412787E-003,-7.670009732246399E-001,-6.402570605278015E-001,
8.238666666666666E+008,-3.328841412439942E-003,-8.080888655968010E-004,-7.685151100158691E-001,-6.114871501922607E-001,-3.328841412439942E-003,-8.080888655968010E-004,-7.685151100158691E-001,-6.114871501922607E-001,
8.322333333333334E+008,-1.119423750787973E-002,-9.833023650571704E-004,-7.905688881874085E-001,-5.929615497589111E-001,-1.119423750787973E-002,-9.833023650571704E-004,-7.905688881874085E-001,-5.929615497589111E-001,
8.406000000000000E+008,-1.822412572801113E-002,2.665444742888212E-003,-8.023893833160400E-001,-5.813701748847961E-001,-1.822412572801113E-002,2.665444742888212E-003,-8.023893833160400E-001,-5.813701748847961E-001,
8.489666666666668E+008,-2.295723930001259E-002,8.962656371295452E-003,-8.135039210319519E-001,-5.674094557762146E-001,-2.295723930001259E-002,8.962656371295452E-003,-8.135039210319519E-001,-5.674094557762146E-001,
8.573333333333334E+008,-2.218771912157536E-002,1.676909625530243E-002,-8.328026533126831E-001,-5.279954671859741E-001,-2.218771912157536E-002,1.676909625530243E-002,-8.328026533126831E-001,-5.279954671859741E-001,
8.657000000000000E+008,-1.596911810338497E-002,2.354206144809723E-002,-8.511284589767456E-001,-5.091641545295715E-001,-1.596911810338497E-002,2.354206144809723E-002,-8.511284589767456E-001,-5.091641545295715E-001,
8.740666666666668E+008,-9.167438372969627E-003,2.663273736834526E-002,-8.491552472114563E-001,-4.969425797462463E-001,-9.167438372969627E-003,2.663273736834526E-002,-8.491552472114563E-001,-4.969425797462463E-001,
8.824333333333334E+008,8.036030340008438E-005,2.645258419215679E-002,-8.675457239151001E-001,-4.829850792884827E-001,8.036030340008438E-005,2.645258419215679E-002,-8.675457239151001E-001,-4.829850792884827E-001,
8.908000000000000E+008,8.606268092989922E-003,2.224388532340527E-002,-8.696433305740356E-001,-4.514743387699127E-001,8.606268092989922E-003,2.224388532340527E-002,-8.696433305740356E-001,-4.514743387699127E-001,
8.991666666666668E+008,1.219340134412050E-002,1.590543612837791E-002,-8.850059509277344E-001,-4.245323240756989E-001,1.219340134412050E-002,1.590543612837791E-002,-8.850059509277344E-001,-4.245323240756989E-001,
9.075333333333334E+008,1.178481150418520E-002,9.004577994346619E-003,-9.160403013229370E-001,-4.084718525409699E-001,1.178481150418520E-002,9.004577994346619E-003,-9.160403013229370E-001,-4.084718525409699E-001,
9.159000000000000E+008,8.370219729840756E-003,6.400683429092169E-003,-9.216893911361694E-001,-3.795128464698792E-001,8.370219729840756E-003,6.400683429092169E-003,-9.216893911361694E-001,-3.795128464698792E-001,
9.242666666666668E+008,2.475057030096650E-003,3.043655538931489E-003,-9.287790060043335E-001,-3.657382726669312E-001,2.475057030096650E-003,3.043655538931489E-003,-9.287790060043335E-001,-3.657382726669312E-001,
9.326333333333334E+008,-6.052724551409483E-003,3.621181938797236E-003,-9.504067897796631E-001,-3.446692228317261E-001,-6.052724551409483E-003,3.621181938797236E-003,-9.504067897796631E-001,-3.446692228317261E-001,
9.410000000000000E+008,-1.093134097754955E-002,7.954908534884453E-003,-9.440184235572815E-001,-3.114301562309265E-001,-1.093134097754955E-002,7.954908534884453E-003,-9.440184235572815E-001,-3.114301562309265E-001,
9.493666666666668E+008,-1.378020737320185E-002,1.440458651632071E-002,-9.438789486885071E-001,-2.938552200794220E-001,-1.378020737320185E-002,1.440458651632071E-002,-9.438789486885071E-001,-2.938552200794220E-001,
9.577333333333334E+008,-1.278806105256081E-002,2.321942895650864E-002,-9.607942104339600E-001,-2.713334262371063E-001,-1.278806105256081E-002,2.321942895650864E-002,-9.607942104339600E-001,-2.713334262371063E-001,
9.661000000000000E+008,-6.348353810608387E-003,3.047403879463673E-002,-9.603891968727112E-001,-2.473895847797394E-001,-6.348353810608387E-003,3.047403879463673E-002,-9.603891968727112E-001,-2.473895847797394E-001,
9.744666666666668E+008,1.194516313262284E-003,3.206526860594750E-002,-9.672392010688782E-001,-2.239960283041000E-001,1.194516313262284E-003,3.206526860594750E-002,-9.672392010688782E-001,-2.239960283041000E-001,
9.828333333333334E+008,1.385048590600491E-002,3.006215207278729E-002,-9.718195199966431E-001,-2.031762152910233E-001,1.385048590600491E-002,3.006215207278729E-002,-9.718195199966431E-001,-2.031762152910233E-001,
9.912000000000000E+008,2.109018526971340E-002,2.440397441387177E-002,-9.730042815208435E-001,-1.761264652013779E-001,2.109018526971340E-002,2.440397441387177E-002,-9.730042815208435E-001,-1.761264652013779E-001,
9.995666666666668E+008,2.736579440534115E-002,1.650857180356979E-002,-9.904797673225403E-001,-1.392295360565186E-001,2.736579440534115E-002,1.650857180356979E-002,-9.904797673225403E-001,-1.392295360565186E-001,
1.007933333333333E+009,2.718430012464523E-002,7.444894406944513E-003,-9.877845048904419E-001,-1.246073096990585E-001,2.718430012464523E-002,7.444894406944513E-003,-9.877845048904419E-001,-1.246073096990585E-001,
1.016300000000000E+009,2.111402153968811E-002,1.697612926363945E-003,-9.915120005607605E-001,-9.877298772335053E-002,2.111402153968811E-002,1.697612926363945E-003,-9.915120005607605E-001,-9.877298772335053E-002,
1.024666666666667E+009,1.344827190041542E-002,-4.521452821791172E-003,-9.934124350547791E-001,-6.672708690166473E-002,1.344827190041542E-002,-4.521452821791172E-003,-9.934124350547791E-001,-6.672708690166473E-002,
1.033033333333333E+009,5.505874752998352E-003,-1.720838248729706E-003,-9.938405156135559E-001,-4.879090934991837E-002,5.505874752998352E-003,-1.720838248729706E-003,-9.938405156135559E-001,-4.879090934991837E-002,
1.041400000000000E+009,-1.819623634219170E-003,4.372124094516039E-003,-9.810516834259033E-001,-9.757199324667454E-003,-1.819623634219170E-003,4.372124094516039E-003,-9.810516834259033E-001,-9.757199324667454E-003,
1.049766666666667E+009,-4.466122481971979E-003,1.303876098245382E-002,-9.947152733802795E-001,8.199674077332020E-003,-4.466122481971979E-003,1.303876098245382E-002,-9.947152733802795E-001,8.199674077332020E-003,
1.058133333333333E+009,-6.199434865266085E-004,2.043250575661659E-002,-9.902963042259216E-001,2.589805051684380E-002,-6.199434865266085E-004,2.043250575661659E-002,-9.902963042259216E-001,2.589805051684380E-002,
1.066500000000000E+009,8.334692567586899E-003,2.606160379946232E-002,-1.000252366065979E+000,6.390626728534699E-002,8.334692567586899E-003,2.606160379946232E-002,-1.000252366065979E+000,6.390626728534699E-002,
1.074866666666667E+009,1.859199069440365E-002,2.521817572414875E-002,-9.830585718154907E-001,8.274171501398087E-002,1.859199069440365E-002,2.521817572414875E-002,-9.830585718154907E-001,8.274171501398087E-002,
1.083233333333334E+009,2.944495528936386E-002,1.577188260853291E-002,-9.828397035598755E-001,1.035618335008621E-001,2.944495528936386E-002,1.577188260853291E-002,-9.828397035598755E-001,1.035618335008621E-001,
1.091600000000000E+009,3.607326000928879E-002,6.301617715507746E-003,-9.756300449371338E-001,1.263966411352158E-001,3.607326000928879E-002,6.301617715507746E-003,-9.756300449371338E-001,1.263966411352158E-001,
1.099966666666667E+009,3.727045282721520E-002,-7.146462332457304E-003,-9.807625412940979E-001,1.640906035900116E-001,3.727045282721520E-002,-7.146462332457304E-003,-9.807625412940979E-001,1.640906035900116E-001,
1.108333333333334E+009,2.865313924849033E-002,-1.778892055153847E-002,-9.589422345161438E-001,1.678452938795090E-001,2.865313924849033E-002,-1.778892055153847E-002,-9.589422345161438E-001,1.678452938795090E-001,
1.116700000000000E+009,1.597501896321774E-002,-1.813759282231331E-002,-9.611766338348389E-001,2.127077579498291E-001,1.597501896321774E-002,-1.813759282231331E-002,-9.611766338348389E-001,2.127077579498291E-001,
1.125066666666667E+009,2.165525220334530E-003,-1.822816766798496E-002,-9.666149020195007E-001,2.215766906738281E-001,2.165525220334530E-003,-1.822816766798496E-002,-9.666149020195007E-001,2.215766906738281E-001,
1.133433333333334E+009,-8.532708510756493E-003,-6.036056205630302E-003,-9.679603576660156E-001,2.457588165998459E-001,-8.532708510756493E-003,-6.036056205630302E-003,-9.679603576660156E-001,2.457588165998459E-001,
1.141800000000000E+009,-1.166281197220087E-002,6.360778585076332E-003,-9.418808817863464E-001,2.669486105442047E-001,-1.166281197220087E-002,6.360778585076332E-003,-9.418808817863464E-001,2.669486105442047E-001,
1.150166666666667E+009,-7.579262834042311E-003,2.266370505094528E-002,-9.279758334159851E-001,2.982058525085449E-001,-7.579262834042311E-003,2.266370505094528E-002,-9.279758334159851E-001,2.982058525085449E-001,
1.158533333333334E+009,4.904463421553373E-003,3.193027526140213E-002,-9.319952130317688E-001,3.231240510940552E-001,4.904463421553373E-003,3.193027526140213E-002,-9.319952130317688E-001,3.231240510940552E-001,
1.166900000000000E+009,2.302930690348148E-002,3.319032117724419E-002,-9.249131083488464E-001,3.562863469123840E-001,2.302930690348148E-002,3.319032117724419E-002,-9.249131083488464E-001,3.562863469123840E-001,
1.175266666666667E+009,3.876426815986633E-002,2.333270199596882E-002,-9.152127504348755E-001,3.626477420330048E-001,3.876426815986633E-002,2.333270199596882E-002,-9.152127504348755E-001,3.626477420330048E-001,
1.183633333333334E+009,5.104979500174522E-002,8.384427055716515E-003,-9.070629477500916E-001,4.020335674285889E-001,5.104979500174522E-002,8.384427055716515E-003,-9.070629477500916E-001,4.020335674285889E-001,
1.192000000000000E+009,5.315462499856949E-002,-1.203190535306931E-002,-8.969160318374634E-001,4.092614054679871E-001,5.315462499856949E-002,-1.203190535306931E-002,-8.969160318374634E-001,4.092614054679871E-001,
1.200366666666667E+009,4.373843222856522E-002,-2.803807519376278E-002,-8.891389369964600E-001,4.371123611927033E-001,4.373843222856522E-002,-2.803807519376278E-002,-8.891389369964600E-001,4.371123611927033E-001,
1.208733333333334E+009,2.895724773406982E-002,-3.888511285185814E-002,-8.838773965835571E-001,4.538158476352692E-001,2.895724773406982E-002,-3.888511285185814E-002,-8.838773965835571E-001,4.538158476352692E-001,
1.217100000000000E+009,1.031285803765059E-002,-3.615959361195564E-002,-8.703651428222656E-001,4.739766120910645E-001,1.031285803765059E-002,-3.615959361195564E-002,-8.703651428222656E-001,4.739766120910645E-001,
1.225466666666667E+009,-2.220898866653442E-003,-2.773854322731495E-002,-8.470761179924011E-001,5.027539134025574E-001,-2.220898866653442E-003,-2.773854322731495E-002,-8.470761179924011E-001,5.027539134025574E-001,
1.233833333333334E+009,-1.095458865165710E-002,-1.147089246660471E-002,-8.325004577636719E-001,5.208060145378113E-001,-1.095458865165710E-002,-1.147089246660471E-002,-8.325004577636719E-001,5.208060145378113E-001,
1.242200000000000E+009,-9.780167602002621E-003,6.650712341070175E-003,-8.195509910583496E-001,5.339510440826416E-001,-9.780167602002621E-003,6.650712341070175E-003,-8.195509910583496E-001,5.339510440826416E-001,
1.250566666666667E+009,3.136655781418085E-003,1.866056956350803E-002,-7.949214577674866E-001,5.639579892158508E-001,3.136655781418085E-003,1.866056956350803E-002,-7.949214577674866E-001,5.639579892158508E-001,
1.258933333333334E+009,2.068904228508472E-002,2.197564579546452E-002,-8.068434596061707E-001,5.833581089973450E-001,2.068904228508472E-002,2.197564579546452E-002,-8.068434596061707E-001,5.833581089973450E-001,
1.267300000000000E+009,3.876304998993874E-002,1.300408411771059E-002,-7.880167961120606E-001,5.971276760101318E-001,3.876304998993874E-002,1.300408411771059E-002,-7.880167961120606E-001,5.971276760101318E-001,
1.275666666666667E+009,4.997000843286514E-002,-4.694577306509018E-003,-7.565287351608276E-001,6.225771903991699E-001,4.997000843286514E-002,-4.694577306509018E-003,-7.565287351608276E-001,6.225771903991699E-001,
1.284033333333334E+009,5.099028721451759E-002,-2.661265991628170E-002,-7.503581047058106E-001,6.434957385063171E-001,5.099028721451759E-002,-2.661265991628170E-002,-7.503581047058106E-001,6.434957385063171E-001,
1.292400000000000E+009,4.114886745810509E-002,-4.556683450937271E-002,-7.387604117393494E-001,6.594252586364746E-001,4.114886745810509E-002,-4.556683450937271E-002,-7.387604117393494E-001,6.594252586364746E-001,
1.300766666666667E+009,2.338797971606255E-002,-5.606418475508690E-002,-7.159783244132996E-001,6.761642694473267E-001,2.338797971606255E-002,-5.606418475508690E-002,-7.159783244132996E-001,6.761642694473267E-001,
1.309133333333334E+009,1.679010922089219E-003,-5.565848201513290E-002,-7.050269246101379E-001,6.928445100784302E-001,1.679010922089219E-003,-5.565848201513290E-002,-7.050269246101379E-001,6.928445100784302E-001,
1.317500000000000E+009,-1.358137372881174E-002,-4.465471580624580E-002,-6.816656589508057E-001,7.083921432495117E-001,-1.358137372881174E-002,-4.465471580624580E-002,-6.816656589508057E-001,7.083921432495117E-001,
1.325866666666667E+009,-2.117500267922878E-002,-2.525481209158897E-002,-6.683072447776794E-001,7.231747508049011E-001,-2.117500267922878E-002,-2.525481209158897E-002,-6.683072447776794E-001,7.231747508049011E-001,
1.334233333333334E+009,-1.700871810317040E-002,-6.536432076245546E-003,-6.424748897552490E-001,7.455480098724365E-001,-1.700871810317040E-002,-6.536432076245546E-003,-6.424748897552490E-001,7.455480098724365E-001,
1.342600000000000E+009,-4.867115058004856E-003,4.755646456032991E-003,-6.257165074348450E-001,7.648968100547791E-001,-4.867115058004856E-003,4.755646456032991E-003,-6.257165074348450E-001,7.648968100547791E-001,
1.350966666666667E+009,1.286075357347727E-002,6.285690702497959E-003,-5.979496836662293E-001,7.912295460700989E-001,1.286075357347727E-002,6.285690702497959E-003,-5.979496836662293E-001,7.912295460700989E-001,
1.359333333333334E+009,2.891030535101891E-002,-3.028426552191377E-003,-5.869310498237610E-001,7.946409583091736E-001,2.891030535101891E-002,-3.028426552191377E-003,-5.869310498237610E-001,7.946409583091736E-001,
1.367700000000000E+009,3.377636894583702E-002,-2.300732769072056E-002,-5.701167583465576E-001,8.043062090873718E-001,3.377636894583702E-002,-2.300732769072056E-002,-5.701167583465576E-001,8.043062090873718E-001,
1.376066666666667E+009,3.098289109766483E-002,-4.234433919191361E-002,-5.552382469177246E-001,8.224766850471497E-001,3.098289109766483E-002,-4.234433919191361E-002,-5.552382469177246E-001,8.224766850471497E-001,
1.384433333333334E+009,1.533075049519539E-002,-6.104401499032974E-002,-5.319042801856995E-001,8.464041948318481E-001,1.533075049519539E-002,-6.104401499032974E-002,-5.319042801856995E-001,8.464041948318481E-001,
1.392800000000000E+009,-6.240156013518572E-003,-6.658902764320374E-002,-5.166932940483093E-001,8.408397436141968E-001,-6.240156013518572E-003,-6.658902764320374E-002,-5.166932940483093E-001,8.408397436141968E-001,
1.401166666666667E+009,-2.797141298651695E-002,-6.007462739944458E-002,-4.942573308944702E-001,8.609147071838379E-001,-2.797141298651695E-002,-6.007462739944458E-002,-4.942573308944702E-001,8.609147071838379E-001,
1.409533333333334E+009,-4.371424019336700E-002,-4.490679129958153E-002,-4.644859731197357E-001,8.728766441345215E-001,-4.371424019336700E-002,-4.490679129958153E-002,-4.644859731197357E-001,8.728766441345215E-001,
1.417900000000000E+009,-4.842066019773483E-002,-2.004037238657475E-002,-4.521162509918213E-001,8.676963448524475E-001,-4.842066019773483E-002,-2.004037238657475E-002,-4.521162509918213E-001,8.676963448524475E-001,
1.426266666666667E+009,-3.970503434538841E-002,-6.711977766826749E-004,-4.230505824089050E-001,8.947187662124634E-001,-3.970503434538841E-002,-6.711977766826749E-004,-4.230505824089050E-001,8.947187662124634E-001,
1.434633333333334E+009,-2.278018929064274E-002,1.343277934938669E-002,-3.919142186641693E-001,9.060494899749756E-001,-2.278018929064274E-002,1.343277934938669E-002,-3.919142186641693E-001,9.060494899749756E-001,
1.443000000000000E+009,-2.431962871924043E-003,1.584119349718094E-002,-3.766918480396271E-001,9.119462966918945E-001,-2.431962871924043E-003,1.584119349718094E-002,-3.766918480396271E-001,9.119462966918945E-001,
1.451366666666667E+009,1.489285100251436E-002,6.233042106032372E-003,-3.468503654003143E-001,9.176790118217468E-001,1.489285100251436E-002,6.233042106032372E-003,-3.468503654003143E-001,9.176790118217468E-001,
1.459733333333334E+009,2.454493753612042E-002,-1.433076523244381E-002,-3.293247520923615E-001,9.247447848320007E-001,2.454493753612042E-002,-1.433076523244381E-002,-3.293247520923615E-001,9.247447848320007E-001,
