% Version 1.00
%
%freq[Hz],re:Trc1_S11,im:Trc1_S11,re:Trc2_S21,im:Trc2_S21,re:Trc3_S11,im:Trc3_S11,re:Trc4_S21,im:Trc4_S21,
6.900000000000000E+008,-5.684208869934082E-002,1.698438264429569E-002,-4.985853731632233E-001,-8.487921953201294E-001,-5.684208869934082E-002,1.698438264429569E-002,-4.985853731632233E-001,-8.487921953201294E-001,
6.983666666666666E+008,-4.797954857349396E-002,1.768568903207779E-002,-5.233822464942932E-001,-8.407680988311768E-001,-4.797954857349396E-002,1.768568903207779E-002,-5.233822464942932E-001,-8.407680988311768E-001,
7.067333333333334E+008,-4.207584634423256E-002,1.247591245919466E-002,-5.680350661277771E-001,-7.780131101608276E-001,-4.207584634423256E-002,1.247591245919466E-002,-5.680350661277771E-001,-7.780131101608276E-001,
7.151000000000000E+008,-4.274723306298256E-002,5.240391939878464E-003,-5.864398479461670E-001,-7.918478846549988E-001,-4.274723306298256E-002,5.240391939878464E-003,-5.864398479461670E-001,-7.918478846549988E-001,
7.234666666666666E+008,-4.692662507295609E-002,3.616799076553434E-004,-5.996859073638916E-001,-7.785744071006775E-001,-4.692662507295609E-002,3.616799076553434E-004,-5.996859073638916E-001,-7.785744071006775E-001,
7.318333333333334E+008,-5.496313050389290E-002,-1.519868150353432E-003,-6.140642166137695E-001,-7.775778770446777E-001,-5.496313050389290E-002,-1.519868150353432E-003,-6.140642166137695E-001,-7.775778770446777E-001,
7.402000000000000E+008,-6.206612288951874E-002,-7.895434391684830E-004,-6.582126021385193E-001,-7.594685554504395E-001,-6.206612288951874E-002,-7.895434391684830E-004,-6.582126021385193E-001,-7.594685554504395E-001,
7.485666666666666E+008,-7.010934501886368E-002,5.995387211441994E-003,-6.564894318580627E-001,-7.560062408447266E-001,-7.010934501886368E-002,5.995387211441994E-003,-6.564894318580627E-001,-7.560062408447266E-001,
7.569333333333334E+008,-7.242937386035919E-002,1.428362447768450E-002,-6.621477603912354E-001,-7.349495291709900E-001,-7.242937386035919E-002,1.428362447768450E-002,-6.621477603912354E-001,-7.349495291709900E-001,
7.653000000000000E+008,-6.860338896512985E-002,2.251716703176498E-002,-6.824382543563843E-001,-7.149121761322022E-001,-6.860338896512985E-002,2.251716703176498E-002,-6.824382543563843E-001,-7.149121761322022E-001,
7.736666666666666E+008,-6.223953515291214E-002,2.868940681219101E-002,-7.152537107467651E-001,-6.890940070152283E-001,-6.223953515291214E-002,2.868940681219101E-002,-7.152537107467651E-001,-6.890940070152283E-001,
7.820333333333334E+008,-5.424589663743973E-002,3.197097405791283E-002,-7.266213297843933E-001,-6.774070858955383E-001,-5.424589663743973E-002,3.197097405791283E-002,-7.266213297843933E-001,-6.774070858955383E-001,
7.904000000000000E+008,-4.496487230062485E-002,3.135876357555389E-002,-7.311230301856995E-001,-6.559037566184998E-001,-4.496487230062485E-002,3.135876357555389E-002,-7.311230301856995E-001,-6.559037566184998E-001,
7.987666666666666E+008,-4.109444096684456E-002,2.618088759481907E-002,-7.657909393310547E-001,-6.345638632774353E-001,-4.109444096684456E-002,2.618088759481907E-002,-7.657909393310547E-001,-6.345638632774353E-001,
8.071333333333334E+008,-3.912685438990593E-002,2.177231758832932E-002,-7.712880373001099E-001,-6.230315566062927E-001,-3.912685438990593E-002,2.177231758832932E-002,-7.712880373001099E-001,-6.230315566062927E-001,
8.155000000000000E+008,-4.578465595841408E-002,1.583802141249180E-002,-7.941127419471741E-001,-6.002829074859619E-001,-4.578465595841408E-002,1.583802141249180E-002,-7.941127419471741E-001,-6.002829074859619E-001,
8.238666666666666E+008,-5.063360184431076E-002,1.311492174863815E-002,-7.956706285476685E-001,-5.718547105789185E-001,-5.063360184431076E-002,1.311492174863815E-002,-7.956706285476685E-001,-5.718547105789185E-001,
8.322333333333334E+008,-5.873104557394981E-002,1.437587291002274E-002,-8.165470957756043E-001,-5.521065592765808E-001,-5.873104557394981E-002,1.437587291002274E-002,-8.165470957756043E-001,-5.521065592765808E-001,
8.406000000000000E+008,-6.529360264539719E-002,1.978383585810661E-002,-8.281130194664002E-001,-5.405436158180237E-001,-6.529360264539719E-002,1.978383585810661E-002,-8.281130194664002E-001,-5.405436158180237E-001,
8.489666666666668E+008,-7.005444169044495E-002,2.713753096759319E-002,-8.370120525360107E-001,-5.242723226547241E-001,-7.005444169044495E-002,2.713753096759319E-002,-8.370120525360107E-001,-5.242723226547241E-001,
8.573333333333334E+008,-6.839156150817871E-002,3.538979962468147E-002,-8.550334572792053E-001,-4.844276309013367E-001,-6.839156150817871E-002,3.538979962468147E-002,-8.550334572792053E-001,-4.844276309013367E-001,
8.657000000000000E+008,-6.181631609797478E-002,4.399818927049637E-002,-8.715126514434815E-001,-4.652543365955353E-001,-6.181631609797478E-002,4.399818927049637E-002,-8.715126514434815E-001,-4.652543365955353E-001,
8.740666666666668E+008,-5.444620177149773E-002,4.736420512199402E-002,-8.708532452583313E-001,-4.526848495006561E-001,-5.444620177149773E-002,4.736420512199402E-002,-8.708532452583313E-001,-4.526848495006561E-001,
8.824333333333334E+008,-4.522468522191048E-002,4.741761833429337E-002,-8.881232142448425E-001,-4.385038316249847E-001,-4.522468522191048E-002,4.741761833429337E-002,-8.881232142448425E-001,-4.385038316249847E-001,
8.908000000000000E+008,-3.712059184908867E-002,4.373783618211746E-002,-8.881847858428955E-001,-4.053222835063934E-001,-3.712059184908867E-002,4.373783618211746E-002,-8.881847858428955E-001,-4.053222835063934E-001,
8.991666666666668E+008,-3.411906585097313E-002,3.764437511563301E-002,-9.038177728652954E-001,-3.790257871150971E-001,-3.411906585097313E-002,3.764437511563301E-002,-9.038177728652954E-001,-3.790257871150971E-001,
9.075333333333334E+008,-3.563241288065910E-002,3.242879733443260E-002,-9.341433644294739E-001,-3.584492206573486E-001,-3.563241288065910E-002,3.242879733443260E-002,-9.341433644294739E-001,-3.584492206573486E-001,
9.159000000000000E+008,-3.961141034960747E-002,3.142381086945534E-002,-9.382253289222717E-001,-3.306251466274262E-001,-3.961141034960747E-002,3.142381086945534E-002,-9.382253289222717E-001,-3.306251466274262E-001,
9.242666666666668E+008,-4.551761969923973E-002,2.971539460122585E-002,-9.431226849555969E-001,-3.146294355392456E-001,-4.551761969923973E-002,2.971539460122585E-002,-9.431226849555969E-001,-3.146294355392456E-001,
9.326333333333334E+008,-5.393987521529198E-002,3.186479955911636E-002,-9.633499979972839E-001,-2.903736233711243E-001,-5.393987521529198E-002,3.186479955911636E-002,-9.633499979972839E-001,-2.903736233711243E-001,
9.410000000000000E+008,-5.832565203309059E-002,3.762723505496979E-002,-9.566474556922913E-001,-2.584961652755737E-001,-5.832565203309059E-002,3.762723505496979E-002,-9.566474556922913E-001,-2.584961652755737E-001,
9.493666666666668E+008,-6.036481633782387E-002,4.550051689147949E-002,-9.547982811927795E-001,-2.408907711505890E-001,-6.036481633782387E-002,4.550051689147949E-002,-9.547982811927795E-001,-2.408907711505890E-001,
9.577333333333334E+008,-5.820129811763763E-002,5.480322986841202E-002,-9.694812893867493E-001,-2.177576422691345E-001,-5.820129811763763E-002,5.480322986841202E-002,-9.694812893867493E-001,-2.177576422691345E-001,
9.661000000000000E+008,-5.096367374062538E-002,6.342868506908417E-002,-9.682487249374390E-001,-1.937085539102554E-001,-5.096367374062538E-002,6.342868506908417E-002,-9.682487249374390E-001,-1.937085539102554E-001,
9.744666666666668E+008,-4.224496707320213E-002,6.441336125135422E-002,-9.739691615104675E-001,-1.693700253963471E-001,-4.224496707320213E-002,6.441336125135422E-002,-9.739691615104675E-001,-1.693700253963471E-001,
9.828333333333334E+008,-2.970426715910435E-002,6.270963698625565E-002,-9.777452349662781E-001,-1.501095294952393E-001,-2.970426715910435E-002,6.270963698625565E-002,-9.777452349662781E-001,-1.501095294952393E-001,
9.912000000000000E+008,-2.320084720849991E-002,5.726212263107300E-002,-9.783022999763489E-001,-1.212645471096039E-001,-2.320084720849991E-002,5.726212263107300E-002,-9.783022999763489E-001,-1.212645471096039E-001,
9.995666666666668E+008,-1.710305176675320E-002,5.011257529258728E-002,-9.945729970932007E-001,-8.306629955768585E-002,-1.710305176675320E-002,5.011257529258728E-002,-9.945729970932007E-001,-8.306629955768585E-002,
1.007933333333333E+009,-1.832142286002636E-002,4.228664934635162E-002,-9.916490912437439E-001,-6.856133043766022E-002,-1.832142286002636E-002,4.228664934635162E-002,-9.916490912437439E-001,-6.856133043766022E-002,
1.016300000000000E+009,-2.499581500887871E-002,3.824069350957871E-002,-9.925613403320313E-001,-4.160521179437637E-002,-2.499581500887871E-002,3.824069350957871E-002,-9.925613403320313E-001,-4.160521179437637E-002,
1.024666666666667E+009,-3.313040733337402E-002,3.414468094706535E-002,-9.935830831527710E-001,-8.178207091987133E-003,-3.313040733337402E-002,3.414468094706535E-002,-9.935830831527710E-001,-8.178207091987133E-003,
1.033033333333333E+009,-4.026585817337036E-002,3.891754150390625E-002,-9.915212392807007E-001,1.104376278817654E-002,-4.026585817337036E-002,3.891754150390625E-002,-9.915212392807007E-001,1.104376278817654E-002,
1.041400000000000E+009,-4.641936719417572E-002,4.655146598815918E-002,-9.773018360137940E-001,4.980906844139099E-002,-4.641936719417572E-002,4.655146598815918E-002,-9.773018360137940E-001,4.980906844139099E-002,
1.049766666666667E+009,-4.760587960481644E-002,5.664552375674248E-002,-9.891214966773987E-001,6.717216968536377E-002,-4.760587960481644E-002,5.664552375674248E-002,-9.891214966773987E-001,6.717216968536377E-002,
1.058133333333333E+009,-4.235269501805306E-002,6.467963755130768E-002,-9.837340116500855E-001,8.508493006229401E-002,-4.235269501805306E-002,6.467963755130768E-002,-9.837340116500855E-001,8.508493006229401E-002,
1.066500000000000E+009,-3.217658028006554E-002,7.114887982606888E-002,-9.909963011741638E-001,1.226573511958122E-001,-3.217658028006554E-002,7.114887982606888E-002,-9.909963011741638E-001,1.226573511958122E-001,
1.074866666666667E+009,-2.149475738406181E-002,6.936497986316681E-002,-9.732313156127930E-001,1.411195397377014E-001,-2.149475738406181E-002,6.936497986316681E-002,-9.732313156127930E-001,1.411195397377014E-001,
1.083233333333334E+009,-1.056428626179695E-002,6.003352627158165E-002,-9.720162153244019E-001,1.635893732309341E-001,-1.056428626179695E-002,6.003352627158165E-002,-9.720162153244019E-001,1.635893732309341E-001,
1.091600000000000E+009,-5.087894387543201E-003,5.110136419534683E-002,-9.644060134887695E-001,1.855072230100632E-001,-5.087894387543201E-003,5.110136419534683E-002,-9.644060134887695E-001,1.855072230100632E-001,
1.099966666666667E+009,-4.856119398027659E-003,3.983548656105995E-002,-9.677494764328003E-001,2.244947999715805E-001,-4.856119398027659E-003,3.983548656105995E-002,-9.677494764328003E-001,2.244947999715805E-001,
1.108333333333334E+009,-1.429519988596439E-002,3.103334084153175E-002,-9.453629255294800E-001,2.284132093191147E-001,-1.429519988596439E-002,3.103334084153175E-002,-9.453629255294800E-001,2.284132093191147E-001,
1.116700000000000E+009,-2.563169598579407E-002,3.251437842845917E-002,-9.440335035324097E-001,2.755128145217896E-001,-2.563169598579407E-002,3.251437842845917E-002,-9.440335035324097E-001,2.755128145217896E-001,
1.125066666666667E+009,-3.945744782686234E-002,3.558583557605743E-002,-9.473348855972290E-001,2.851535081863403E-001,-3.945744782686234E-002,3.558583557605743E-002,-9.473348855972290E-001,2.851535081863403E-001,
1.133433333333334E+009,-4.798638820648193E-002,4.997904598712921E-002,-9.469862580299377E-001,3.091512322425842E-001,-4.798638820648193E-002,4.997904598712921E-002,-9.469862580299377E-001,3.091512322425842E-001,
1.141800000000000E+009,-4.842486232519150E-002,6.333734840154648E-002,-9.180847406387329E-001,3.279058933258057E-001,-4.842486232519150E-002,6.333734840154648E-002,-9.180847406387329E-001,3.279058933258057E-001,
1.150166666666667E+009,-4.208346083760262E-002,8.038240671157837E-002,-9.027648568153381E-001,3.590050637722015E-001,-4.208346083760262E-002,8.038240671157837E-002,-9.027648568153381E-001,3.590050637722015E-001,
1.158533333333334E+009,-2.762027829885483E-002,8.849935233592987E-002,-9.035516381263733E-001,3.821358978748322E-001,-2.762027829885483E-002,8.849935233592987E-002,-9.035516381263733E-001,3.821358978748322E-001,
1.166900000000000E+009,-8.963590487837791E-003,8.887274563312531E-002,-8.958054780960083E-001,4.143937826156616E-001,-8.963590487837791E-003,8.887274563312531E-002,-8.958054780960083E-001,4.143937826156616E-001,
1.175266666666667E+009,7.088156417012215E-003,7.783586531877518E-002,-8.873184919357300E-001,4.202765524387360E-001,7.088156417012215E-003,7.783586531877518E-002,-8.873184919357300E-001,4.202765524387360E-001,
1.183633333333334E+009,1.809899136424065E-002,6.298793107271195E-002,-8.762785792350769E-001,4.601437449455261E-001,1.809899136424065E-002,6.298793107271195E-002,-8.762785792350769E-001,4.601437449455261E-001,
1.192000000000000E+009,1.882825233042240E-002,4.360028728842735E-002,-8.665053844451904E-001,4.692651927471161E-001,1.882825233042240E-002,4.360028728842735E-002,-8.665053844451904E-001,4.692651927471161E-001,
1.200366666666667E+009,7.924633100628853E-003,2.975362166762352E-002,-8.573101758956909E-001,4.976837635040283E-001,7.924633100628853E-003,2.975362166762352E-002,-8.573101758956909E-001,4.976837635040283E-001,
1.208733333333334E+009,-7.557995151728392E-003,2.187320776283741E-002,-8.496150970458984E-001,5.165520310401917E-001,-7.557995151728392E-003,2.187320776283741E-002,-8.496150970458984E-001,5.165520310401917E-001,
1.217100000000000E+009,-2.475513331592083E-002,2.845181338489056E-002,-8.327996134757996E-001,5.361773371696472E-001,-2.475513331592083E-002,2.845181338489056E-002,-8.327996134757996E-001,5.361773371696472E-001,
1.225466666666667E+009,-3.424910828471184E-002,4.013129323720932E-002,-8.066294193267822E-001,5.629580020904541E-001,-3.424910828471184E-002,4.013129323720932E-002,-8.066294193267822E-001,5.629580020904541E-001,
1.233833333333334E+009,-4.055694118142128E-002,5.755215883255005E-002,-7.894385457038879E-001,5.797766447067261E-001,-4.055694118142128E-002,5.755215883255005E-002,-7.894385457038879E-001,5.797766447067261E-001,
1.242200000000000E+009,-3.638267517089844E-002,7.599821686744690E-002,-7.750833034515381E-001,5.905781388282776E-001,-3.638267517089844E-002,7.599821686744690E-002,-7.750833034515381E-001,5.905781388282776E-001,
1.250566666666667E+009,-2.087109535932541E-002,8.697871118783951E-002,-7.485842108726502E-001,6.181333661079407E-001,-2.087109535932541E-002,8.697871118783951E-002,-7.485842108726502E-001,6.181333661079407E-001,
1.258933333333334E+009,-1.557495561428368E-003,8.848797529935837E-002,-7.586578726768494E-001,6.375166177749634E-001,-1.557495561428368E-003,8.848797529935837E-002,-7.586578726768494E-001,6.375166177749634E-001,
1.267300000000000E+009,1.667039841413498E-002,7.824189215898514E-002,-7.406831979751587E-001,6.500923037528992E-001,1.667039841413498E-002,7.824189215898514E-002,-7.406831979751587E-001,6.500923037528992E-001,
1.275666666666667E+009,2.604484558105469E-002,5.964509397745132E-002,-7.079353928565979E-001,6.747109889984131E-001,2.604484558105469E-002,5.964509397745132E-002,-7.079353928565979E-001,6.747109889984131E-001,
1.284033333333334E+009,2.559222094714642E-002,3.901327773928642E-002,-7.003314495086670E-001,6.961725950241089E-001,2.559222094714642E-002,3.901327773928642E-002,-7.003314495086670E-001,6.961725950241089E-001,
1.292400000000000E+009,1.466800458729267E-002,2.271343208849430E-002,-6.876266598701477E-001,7.125778198242188E-001,1.466800458729267E-002,2.271343208849430E-002,-6.876266598701477E-001,7.125778198242188E-001,
1.300766666666667E+009,-3.793116193264723E-003,1.481010857969523E-002,-6.622480750083923E-001,7.302406430244446E-001,-3.793116193264723E-003,1.481010857969523E-002,-6.622480750083923E-001,7.302406430244446E-001,
1.309133333333334E+009,-2.338601462543011E-002,1.921348460018635E-002,-6.483419537544251E-001,7.468627095222473E-001,-2.338601462543011E-002,1.921348460018635E-002,-6.483419537544251E-001,7.468627095222473E-001,
1.317500000000000E+009,-3.644769266247749E-002,3.449450433254242E-002,-6.222678422927856E-001,7.615175247192383E-001,-3.644769266247749E-002,3.449450433254242E-002,-6.222678422927856E-001,7.615175247192383E-001,
1.325866666666667E+009,-3.974480181932449E-002,5.489543825387955E-002,-6.055231690406799E-001,7.728109359741211E-001,-3.974480181932449E-002,5.489543825387955E-002,-6.055231690406799E-001,7.728109359741211E-001,
1.334233333333334E+009,-3.198880702257156E-002,7.352602481842041E-002,-5.780877470970154E-001,7.925245165824890E-001,-3.198880702257156E-002,7.352602481842041E-002,-5.780877470970154E-001,7.925245165824890E-001,
1.342600000000000E+009,-1.694883033633232E-002,8.351366966962814E-002,-5.606262683868408E-001,8.089495301246643E-001,-1.694883033633232E-002,8.351366966962814E-002,-5.606262683868408E-001,8.089495301246643E-001,
1.350966666666667E+009,2.289290074259043E-003,8.345840126276016E-002,-5.310703516006470E-001,8.338382244110107E-001,2.289290074259043E-003,8.345840126276016E-002,-5.310703516006470E-001,8.338382244110107E-001,
1.359333333333334E+009,1.704225502908230E-002,7.303186506032944E-002,-5.215153098106384E-001,8.359643220901489E-001,1.704225502908230E-002,7.303186506032944E-002,-5.215153098106384E-001,8.359643220901489E-001,
1.367700000000000E+009,2.104597724974155E-002,5.205574631690979E-002,-5.042491555213928E-001,8.452481031417847E-001,2.104597724974155E-002,5.205574631690979E-002,-5.042491555213928E-001,8.452481031417847E-001,
1.376066666666667E+009,1.694549433887005E-002,3.422382846474648E-002,-4.880725443363190E-001,8.639687299728394E-001,1.694549433887005E-002,3.422382846474648E-002,-4.880725443363190E-001,8.639687299728394E-001,
1.384433333333334E+009,4.828162782359868E-004,1.839809492230415E-002,-4.608364999294281E-001,8.887294530868530E-001,4.828162782359868E-004,1.839809492230415E-002,-4.608364999294281E-001,8.887294530868530E-001,
1.392800000000000E+009,-2.038700319826603E-002,1.701405644416809E-002,-4.446571171283722E-001,8.831483125686646E-001,-2.038700319826603E-002,1.701405644416809E-002,-4.446571171283722E-001,8.831483125686646E-001,
1.401166666666667E+009,-3.945125639438629E-002,2.845898456871510E-002,-4.186873435974121E-001,9.018481373786926E-001,-3.945125639438629E-002,2.845898456871510E-002,-4.186873435974121E-001,9.018481373786926E-001,
1.409533333333334E+009,-5.083705857396126E-002,4.537814110517502E-002,-3.853648900985718E-001,9.098374247550964E-001,-5.083705857396126E-002,4.537814110517502E-002,-3.853648900985718E-001,9.098374247550964E-001,
1.417900000000000E+009,-5.040901899337769E-002,7.132184505462647E-002,-3.719682395458221E-001,9.021171927452087E-001,-5.040901899337769E-002,7.132184505462647E-002,-3.719682395458221E-001,9.021171927452087E-001,
1.426266666666667E+009,-3.628192096948624E-002,8.998847752809525E-002,-3.401733338832855E-001,9.247633814811707E-001,-3.628192096948624E-002,8.998847752809525E-002,-3.401733338832855E-001,9.247633814811707E-001,
1.434633333333334E+009,-1.680361479520798E-002,1.014267206192017E-001,-3.083479702472687E-001,9.317833781242371E-001,-1.680361479520798E-002,1.014267206192017E-001,-3.083479702472687E-001,9.317833781242371E-001,
1.443000000000000E+009,5.397563800215721E-003,1.009432449936867E-001,-2.945920825004578E-001,9.366565942764282E-001,5.397563800215721E-003,1.009432449936867E-001,-2.945920825004578E-001,9.366565942764282E-001,
1.451366666666667E+009,2.162091806530953E-002,8.899834752082825E-002,-2.662976980209351E-001,9.396883249282837E-001,2.162091806530953E-002,8.899834752082825E-002,-2.662976980209351E-001,9.396883249282837E-001,
1.459733333333334E+009,3.030758351087570E-002,6.838546693325043E-002,-2.471697479486466E-001,9.480614066123962E-001,3.030758351087570E-002,6.838546693325043E-002,-2.471697479486466E-001,9.480614066123962E-001,
