% Version 1.00
%
%freq[Hz],re:Trc1_S11,im:Trc1_S11,re:Trc2_S21,im:Trc2_S21,re:Trc3_S11,im:Trc3_S11,re:Trc4_S21,im:Trc4_S21,
6.900000000000000E+008,-1.747625321149826E-002,6.102271378040314E-002,-4.996821582317352E-001,-8.501706123352051E-001,-1.747625321149826E-002,6.102271378040314E-002,-4.996821582317352E-001,-8.501706123352051E-001,
6.983666666666666E+008,-6.250791717320681E-003,6.140653043985367E-002,-5.243784189224243E-001,-8.356760144233704E-001,-6.250791717320681E-003,6.140653043985367E-002,-5.243784189224243E-001,-8.356760144233704E-001,
7.067333333333334E+008,8.434695773757994E-004,5.607477203011513E-002,-5.684038996696472E-001,-7.771126031875610E-001,8.434695773757994E-004,5.607477203011513E-002,-5.684038996696472E-001,-7.771126031875610E-001,
7.151000000000000E+008,2.772564534097910E-003,4.830459132790566E-002,-5.857805013656616E-001,-7.930572628974915E-001,2.772564534097910E-003,4.830459132790566E-002,-5.857805013656616E-001,-7.930572628974915E-001,
7.234666666666666E+008,7.549990550614893E-004,4.268119484186173E-002,-5.961208343505859E-001,-7.787770032882690E-001,7.549990550614893E-004,4.268119484186173E-002,-5.961208343505859E-001,-7.787770032882690E-001,
7.318333333333334E+008,-5.105107557028532E-003,3.991055488586426E-002,-6.103541851043701E-001,-7.842286825180054E-001,-5.105107557028532E-003,3.991055488586426E-002,-6.103541851043701E-001,-7.842286825180054E-001,
7.402000000000000E+008,-1.063155569136143E-002,4.043402150273323E-002,-6.585137248039246E-001,-7.614187002182007E-001,-1.063155569136143E-002,4.043402150273323E-002,-6.585137248039246E-001,-7.614187002182007E-001,
7.485666666666666E+008,-1.570497825741768E-002,4.583135992288590E-002,-6.580091118812561E-001,-7.594273686408997E-001,-1.570497825741768E-002,4.583135992288590E-002,-6.580091118812561E-001,-7.594273686408997E-001,
7.569333333333334E+008,-1.576287299394608E-002,5.345020443201065E-002,-6.671570539474487E-001,-7.401364445686340E-001,-1.576287299394608E-002,5.345020443201065E-002,-6.671570539474487E-001,-7.401364445686340E-001,
7.653000000000000E+008,-9.465122595429421E-003,6.049790605902672E-002,-6.852259039878845E-001,-7.187622785568237E-001,-9.465122595429421E-003,6.049790605902672E-002,-6.852259039878845E-001,-7.187622785568237E-001,
7.736666666666666E+008,-1.574623747728765E-003,6.634745001792908E-002,-7.177903056144714E-001,-6.887360811233521E-001,-1.574623747728765E-003,6.634745001792908E-002,-7.177903056144714E-001,-6.887360811233521E-001,
7.820333333333334E+008,8.764863945543766E-003,6.879418343305588E-002,-7.295276522636414E-001,-6.797850728034973E-001,8.764863945543766E-003,6.879418343305588E-002,-7.295276522636414E-001,-6.797850728034973E-001,
7.904000000000000E+008,2.064372226595879E-002,6.680346280336380E-002,-7.306298613548279E-001,-6.550617218017578E-001,2.064372226595879E-002,6.680346280336380E-002,-7.306298613548279E-001,-6.550617218017578E-001,
7.987666666666666E+008,2.601074799895287E-002,6.078875437378883E-002,-7.651968002319336E-001,-6.380318403244019E-001,2.601074799895287E-002,6.078875437378883E-002,-7.651968002319336E-001,-6.380318403244019E-001,
8.071333333333334E+008,2.987093105912209E-002,5.485905706882477E-002,-7.692140340805054E-001,-6.242846846580505E-001,2.987093105912209E-002,5.485905706882477E-002,-7.692140340805054E-001,-6.242846846580505E-001,
8.155000000000000E+008,2.539477497339249E-002,4.819319769740105E-002,-7.949910163879395E-001,-6.036817431449890E-001,2.539477497339249E-002,4.819319769740105E-002,-7.949910163879395E-001,-6.036817431449890E-001,
8.238666666666666E+008,2.276476845145226E-002,4.288045689463615E-002,-7.950029373168945E-001,-5.745527744293213E-001,2.276476845145226E-002,4.288045689463615E-002,-7.950029373168945E-001,-5.745527744293213E-001,
8.322333333333334E+008,1.664627902209759E-002,4.270967096090317E-002,-8.195818662643433E-001,-5.537330508232117E-001,1.664627902209759E-002,4.270967096090317E-002,-8.195818662643433E-001,-5.537330508232117E-001,
8.406000000000000E+008,1.178515702486038E-002,4.560753703117371E-002,-8.282388448715210E-001,-5.411488413810730E-001,1.178515702486038E-002,4.560753703117371E-002,-8.282388448715210E-001,-5.411488413810730E-001,
8.489666666666668E+008,9.783055633306503E-003,5.256750434637070E-002,-8.406720161437988E-001,-5.234734416007996E-001,9.783055633306503E-003,5.256750434637070E-002,-8.406720161437988E-001,-5.234734416007996E-001,
8.573333333333334E+008,1.213398016989231E-002,5.942230671644211E-002,-8.565288782119751E-001,-4.830249845981598E-001,1.213398016989231E-002,5.942230671644211E-002,-8.565288782119751E-001,-4.830249845981598E-001,
8.657000000000000E+008,2.259892597794533E-002,6.510593742132187E-002,-8.705943822860718E-001,-4.634269475936890E-001,2.259892597794533E-002,6.510593742132187E-002,-8.705943822860718E-001,-4.634269475936890E-001,
8.740666666666668E+008,3.169837594032288E-002,6.636853516101837E-002,-8.713184595108032E-001,-4.532649219036102E-001,3.169837594032288E-002,6.636853516101837E-002,-8.713184595108032E-001,-4.532649219036102E-001,
8.824333333333334E+008,4.183768481016159E-002,6.443297117948532E-002,-8.867822289466858E-001,-4.355217814445496E-001,4.183768481016159E-002,6.443297117948532E-002,-8.867822289466858E-001,-4.355217814445496E-001,
8.908000000000000E+008,5.192552506923676E-002,5.860090628266335E-002,-8.872253894805908E-001,-4.032724499702454E-001,5.192552506923676E-002,5.860090628266335E-002,-8.872253894805908E-001,-4.032724499702454E-001,
8.991666666666668E+008,5.562699586153030E-002,5.065570771694183E-002,-9.044284224510193E-001,-3.796669244766235E-001,5.562699586153030E-002,5.065570771694183E-002,-9.044284224510193E-001,-3.796669244766235E-001,
9.075333333333334E+008,5.693097412586212E-002,4.258393868803978E-002,-9.310348033905029E-001,-3.554309904575348E-001,5.693097412586212E-002,4.258393868803978E-002,-9.310348033905029E-001,-3.554309904575348E-001,
9.159000000000000E+008,5.450857803225517E-002,3.825236856937408E-002,-9.400272965431213E-001,-3.286443650722504E-001,5.450857803225517E-002,3.825236856937408E-002,-9.400272965431213E-001,-3.286443650722504E-001,
9.242666666666668E+008,4.986971616744995E-002,3.424839302897453E-002,-9.456466436386108E-001,-3.160767257213593E-001,4.986971616744995E-002,3.424839302897453E-002,-9.456466436386108E-001,-3.160767257213593E-001,
9.326333333333334E+008,4.243183881044388E-002,3.415508568286896E-002,-9.661663174629211E-001,-2.907249033451080E-001,4.243183881044388E-002,3.415508568286896E-002,-9.661663174629211E-001,-2.907249033451080E-001,
9.410000000000000E+008,3.930941224098206E-002,3.710243105888367E-002,-9.593955278396606E-001,-2.575901448726654E-001,3.930941224098206E-002,3.710243105888367E-002,-9.593955278396606E-001,-2.575901448726654E-001,
9.493666666666668E+008,3.920711576938629E-002,4.214242845773697E-002,-9.559930562973023E-001,-2.402043640613556E-001,3.920711576938629E-002,4.214242845773697E-002,-9.559930562973023E-001,-2.402043640613556E-001,
9.577333333333334E+008,4.208161309361458E-002,4.918504878878593E-002,-9.729320406913757E-001,-2.183027714490891E-001,4.208161309361458E-002,4.918504878878593E-002,-9.729320406913757E-001,-2.183027714490891E-001,
9.661000000000000E+008,5.202458798885346E-002,5.346983671188355E-002,-9.709293246269226E-001,-1.886573433876038E-001,5.202458798885346E-002,5.346983671188355E-002,-9.709293246269226E-001,-1.886573433876038E-001,
9.744666666666668E+008,6.058638915419579E-002,5.196056887507439E-002,-9.750286936759949E-001,-1.668199896812439E-001,6.058638915419579E-002,5.196056887507439E-002,-9.750286936759949E-001,-1.668199896812439E-001,
9.828333333333334E+008,7.423833012580872E-002,4.729641228914261E-002,-9.776419997215271E-001,-1.470349282026291E-001,7.423833012580872E-002,4.729641228914261E-002,-9.776419997215271E-001,-1.470349282026291E-001,
9.912000000000000E+008,8.177317678928375E-002,3.942303359508514E-002,-9.793244600296021E-001,-1.178405433893204E-001,8.177317678928375E-002,3.942303359508514E-002,-9.793244600296021E-001,-1.178405433893204E-001,
9.995666666666668E+008,8.734085410833359E-002,2.845857106149197E-002,-9.922892451286316E-001,-8.054643869400024E-002,8.734085410833359E-002,2.845857106149197E-002,-9.922892451286316E-001,-8.054643869400024E-002,
1.007933333333333E+009,8.789408206939697E-002,1.799730211496353E-002,-9.905164837837219E-001,-6.774199753999710E-002,8.789408206939697E-002,1.799730211496353E-002,-9.905164837837219E-001,-6.774199753999710E-002,
1.016300000000000E+009,8.207052201032639E-002,1.061325240880251E-002,-9.955337643623352E-001,-4.285433515906334E-002,8.207052201032639E-002,1.061325240880251E-002,-9.955337643623352E-001,-4.285433515906334E-002,
1.024666666666667E+009,7.400719821453095E-002,2.936134347692132E-003,-9.939724206924439E-001,-8.665681816637516E-003,7.400719821453095E-002,2.936134347692132E-003,-9.939724206924439E-001,-8.665681816637516E-003,
1.033033333333333E+009,6.675065308809280E-002,4.508754238486290E-003,-9.926015734672546E-001,1.042193360626698E-002,6.675065308809280E-002,4.508754238486290E-003,-9.926015734672546E-001,1.042193360626698E-002,
1.041400000000000E+009,6.015668809413910E-002,9.171541780233383E-003,-9.835364818572998E-001,4.846366122364998E-002,6.015668809413910E-002,9.171541780233383E-003,-9.835364818572998E-001,4.846366122364998E-002,
1.049766666666667E+009,5.959009006619453E-002,1.547565683722496E-002,-9.937976002693176E-001,6.865298748016357E-002,5.959009006619453E-002,1.547565683722496E-002,-9.937976002693176E-001,6.865298748016357E-002,
1.058133333333333E+009,6.504910439252853E-002,1.936994679272175E-002,-9.853982925415039E-001,8.796917647123337E-002,6.504910439252853E-002,1.936994679272175E-002,-9.853982925415039E-001,8.796917647123337E-002,
1.066500000000000E+009,7.542803138494492E-002,2.144218981266022E-002,-9.907209873199463E-001,1.266922950744629E-001,7.542803138494492E-002,2.144218981266022E-002,-9.907209873199463E-001,1.266922950744629E-001,
1.074866666666667E+009,8.550485223531723E-002,1.760285533964634E-002,-9.713500738143921E-001,1.453008800745010E-001,8.550485223531723E-002,1.760285533964634E-002,-9.713500738143921E-001,1.453008800745010E-001,
1.083233333333334E+009,9.677234292030335E-002,4.731124732643366E-003,-9.727731347084045E-001,1.647646129131317E-001,9.677234292030335E-002,4.731124732643366E-003,-9.727731347084045E-001,1.647646129131317E-001,
1.091600000000000E+009,1.019656211137772E-001,-6.861496251076460E-003,-9.637614488601685E-001,1.864552646875382E-001,1.019656211137772E-001,-6.861496251076460E-003,-9.637614488601685E-001,1.864552646875382E-001,
1.099966666666667E+009,1.024065166711807E-001,-2.357850410044193E-002,-9.641407132148743E-001,2.249880582094193E-001,1.024065166711807E-001,-2.357850410044193E-002,-9.641407132148743E-001,2.249880582094193E-001,
1.108333333333334E+009,9.239967167377472E-002,-3.528732061386108E-002,-9.418763518333435E-001,2.300743907690048E-001,9.239967167377472E-002,-3.528732061386108E-002,-9.418763518333435E-001,2.300743907690048E-001,
1.116700000000000E+009,7.709448039531708E-002,-3.673829138278961E-002,-9.408724904060364E-001,2.714954018592835E-001,7.709448039531708E-002,-3.673829138278961E-002,-9.408724904060364E-001,2.714954018592835E-001,
1.125066666666667E+009,6.468964368104935E-002,-3.697393089532852E-002,-9.503071904182434E-001,2.826177775859833E-001,6.468964368104935E-002,-3.697393089532852E-002,-9.503071904182434E-001,2.826177775859833E-001,
1.133433333333334E+009,5.422847345471382E-002,-2.672574855387211E-002,-9.507020115852356E-001,3.077169656753540E-001,5.422847345471382E-002,-2.672574855387211E-002,-9.507020115852356E-001,3.077169656753540E-001,
1.141800000000000E+009,5.260231718420982E-002,-1.692448183894157E-002,-9.217998981475830E-001,3.283264338970184E-001,5.260231718420982E-002,-1.692448183894157E-002,-9.217998981475830E-001,3.283264338970184E-001,
1.150166666666667E+009,5.799782276153565E-002,-3.889082930982113E-003,-9.049555063247681E-001,3.612937331199646E-001,5.799782276153565E-002,-3.889082930982113E-003,-9.049555063247681E-001,3.612937331199646E-001,
1.158533333333334E+009,7.145421952009201E-002,1.217132201418281E-003,-9.064788222312927E-001,3.873166739940643E-001,7.145421952009201E-002,1.217132201418281E-003,-9.064788222312927E-001,3.873166739940643E-001,
1.166900000000000E+009,8.991732448339462E-002,-2.533915452659130E-003,-8.963380455970764E-001,4.212102293968201E-001,8.991732448339462E-002,-2.533915452659130E-003,-8.963380455970764E-001,4.212102293968201E-001,
1.175266666666667E+009,1.027651652693749E-001,-1.714086532592773E-002,-8.851563334465027E-001,4.267910718917847E-001,1.027651652693749E-001,-1.714086532592773E-002,-8.851563334465027E-001,4.267910718917847E-001,
1.183633333333334E+009,1.121408119797707E-001,-3.552433475852013E-002,-8.723639249801636E-001,4.603402614593506E-001,1.121408119797707E-001,-3.552433475852013E-002,-8.723639249801636E-001,4.603402614593506E-001,
1.192000000000000E+009,1.108688637614250E-001,-5.766385048627853E-002,-8.598791360855103E-001,4.683471620082855E-001,1.108688637614250E-001,-5.766385048627853E-002,-8.598791360855103E-001,4.683471620082855E-001,
1.200366666666667E+009,9.820441156625748E-002,-7.458066195249558E-002,-8.523612618446350E-001,4.965760409832001E-001,9.820441156625748E-002,-7.458066195249558E-002,-8.523612618446350E-001,4.965760409832001E-001,
1.208733333333334E+009,8.116814494132996E-002,-8.539633452892304E-002,-8.465585708618164E-001,5.134857296943665E-001,8.116814494132996E-002,-8.539633452892304E-002,-8.465585708618164E-001,5.134857296943665E-001,
1.217100000000000E+009,6.094424799084663E-002,-8.323185890913010E-002,-8.326665163040161E-001,5.347776412963867E-001,6.094424799084663E-002,-8.323185890913010E-002,-8.326665163040161E-001,5.347776412963867E-001,
1.225466666666667E+009,4.780365526676178E-002,-7.603813707828522E-002,-8.068103790283203E-001,5.614214539527893E-001,4.780365526676178E-002,-7.603813707828522E-002,-8.068103790283203E-001,5.614214539527893E-001,
1.233833333333334E+009,3.952278941869736E-002,-6.045905128121376E-002,-7.920876741409302E-001,5.788729190826416E-001,3.952278941869736E-002,-6.045905128121376E-002,-7.920876741409302E-001,5.788729190826416E-001,
1.242200000000000E+009,4.198075085878372E-002,-4.568864405155182E-002,-7.776685953140259E-001,5.939406156539917E-001,4.198075085878372E-002,-4.568864405155182E-002,-7.776685953140259E-001,5.939406156539917E-001,
1.250566666666667E+009,5.474989116191864E-002,-3.764382004737854E-002,-7.510030865669251E-001,6.210663914680481E-001,5.474989116191864E-002,-3.764382004737854E-002,-7.510030865669251E-001,6.210663914680481E-001,
1.258933333333334E+009,7.023335248231888E-002,-3.967124968767166E-002,-7.611297965049744E-001,6.434547901153565E-001,7.023335248231888E-002,-3.967124968767166E-002,-7.611297965049744E-001,6.434547901153565E-001,
1.267300000000000E+009,8.448136597871780E-002,-5.316257104277611E-002,-7.372568845748901E-001,6.550788283348084E-001,8.448136597871780E-002,-5.316257104277611E-002,-7.372568845748901E-001,6.550788283348084E-001,
1.275666666666667E+009,9.237679094076157E-002,-7.385949045419693E-002,-7.021659016609192E-001,6.774035096168518E-001,9.237679094076157E-002,-7.385949045419693E-002,-7.021659016609192E-001,6.774035096168518E-001,
1.284033333333334E+009,8.834105730056763E-002,-9.735608845949173E-002,-6.917815208435059E-001,6.932528018951416E-001,8.834105730056763E-002,-9.735608845949173E-002,-6.917815208435059E-001,6.932528018951416E-001,
1.292400000000000E+009,7.399906963109970E-002,-1.169901117682457E-001,-6.834905147552490E-001,7.102774977684021E-001,7.399906963109970E-002,-1.169901117682457E-001,-6.834905147552490E-001,7.102774977684021E-001,
1.300766666666667E+009,5.311919376254082E-002,-1.250398904085159E-001,-6.603074073791504E-001,7.250074148178101E-001,5.311919376254082E-002,-1.250398904085159E-001,-6.603074073791504E-001,7.250074148178101E-001,
1.309133333333334E+009,2.899852581322193E-002,-1.236391291022301E-001,-6.474571824073792E-001,7.409834861755371E-001,2.899852581322193E-002,-1.236391291022301E-001,-6.474571824073792E-001,7.409834861755371E-001,
1.317500000000000E+009,1.305565331131220E-002,-1.125731170177460E-001,-6.268377900123596E-001,7.549263238906860E-001,1.305565331131220E-002,-1.125731170177460E-001,-6.268377900123596E-001,7.549263238906860E-001,
1.325866666666667E+009,5.072300788015127E-003,-9.407348930835724E-002,-6.077072024345398E-001,7.696897983551025E-001,5.072300788015127E-003,-9.407348930835724E-002,-6.077072024345398E-001,7.696897983551025E-001,
1.334233333333334E+009,9.084196761250496E-003,-7.742883265018463E-002,-5.825008153915405E-001,7.914333343505859E-001,9.084196761250496E-003,-7.742883265018463E-002,-5.825008153915405E-001,7.914333343505859E-001,
1.342600000000000E+009,1.968323066830635E-002,-6.923019140958786E-002,-5.632263422012329E-001,8.112431168556213E-001,1.968323066830635E-002,-6.923019140958786E-002,-5.632263422012329E-001,8.112431168556213E-001,
1.350966666666667E+009,3.446668386459351E-002,-7.194859534502029E-002,-5.278909206390381E-001,8.352743387222290E-001,3.446668386459351E-002,-7.194859534502029E-002,-5.278909206390381E-001,8.352743387222290E-001,
1.359333333333334E+009,4.771252721548080E-002,-8.565803617238998E-002,-5.190245509147644E-001,8.399208188056946E-001,4.771252721548080E-002,-8.565803617238998E-002,-5.190245509147644E-001,8.399208188056946E-001,
1.367700000000000E+009,4.635644331574440E-002,-1.069682389497757E-001,-4.988408088684082E-001,8.466019034385681E-001,4.635644331574440E-002,-1.069682389497757E-001,-4.988408088684082E-001,8.466019034385681E-001,
1.376066666666667E+009,3.818785771727562E-002,-1.260142922401428E-001,-4.832873642444611E-001,8.613079786300659E-001,3.818785771727562E-002,-1.260142922401428E-001,-4.832873642444611E-001,8.613079786300659E-001,
1.384433333333334E+009,1.772833243012428E-002,-1.433607935905457E-001,-4.604541659355164E-001,8.824551701545715E-001,1.772833243012428E-002,-1.433607935905457E-001,-4.604541659355164E-001,8.824551701545715E-001,
1.392800000000000E+009,-7.307048887014389E-003,-1.464983224868774E-001,-4.434834122657776E-001,8.766129016876221E-001,-7.307048887014389E-003,-1.464983224868774E-001,-4.434834122657776E-001,8.766129016876221E-001,
1.401166666666667E+009,-3.012524172663689E-002,-1.371689289808273E-001,-4.218365848064423E-001,8.902574777603149E-001,-3.012524172663689E-002,-1.371689289808273E-001,-4.218365848064423E-001,8.902574777603149E-001,
1.409533333333334E+009,-4.634264111518860E-002,-1.195744574069977E-001,-3.931930065155029E-001,9.029332399368286E-001,-4.634264111518860E-002,-1.195744574069977E-001,-3.931930065155029E-001,9.029332399368286E-001,
1.417900000000000E+009,-5.105702579021454E-002,-9.464287757873535E-002,-3.763177394866943E-001,9.008593559265137E-001,-5.105702579021454E-002,-9.464287757873535E-002,-3.763177394866943E-001,9.008593559265137E-001,
1.426266666666667E+009,-4.348716884851456E-002,-7.791832089424133E-002,-3.519037961959839E-001,9.244538545608521E-001,-4.348716884851456E-002,-7.791832089424133E-002,-3.519037961959839E-001,9.244538545608521E-001,
1.434633333333334E+009,-2.717612311244011E-002,-6.682040542364121E-002,-3.148109018802643E-001,9.351699948310852E-001,-2.717612311244011E-002,-6.682040542364121E-002,-3.148109018802643E-001,9.351699948310852E-001,
1.443000000000000E+009,-1.108629908412695E-002,-6.729537993669510E-002,-2.979999482631683E-001,9.403308629989624E-001,-1.108629908412695E-002,-6.729537993669510E-002,-2.979999482631683E-001,9.403308629989624E-001,
1.451366666666667E+009,2.190411090850830E-003,-8.046296983957291E-002,-2.636192440986633E-001,9.469703435897827E-001,2.190411090850830E-003,-8.046296983957291E-002,-2.636192440986633E-001,9.469703435897827E-001,
1.459733333333334E+009,5.253321956843138E-003,-1.015506759285927E-001,-2.446146905422211E-001,9.445058107376099E-001,5.253321956843138E-003,-1.015506759285927E-001,-2.446146905422211E-001,9.445058107376099E-001,
