% Version 1.00
%
%freq[Hz],re:Trc1_S11,im:Trc1_S11,re:Trc2_S21,im:Trc2_S21,re:Trc3_S11,im:Trc3_S11,re:Trc4_S21,im:Trc4_S21,
6.900000000000000E+008,-3.119421750307083E-002,5.179400742053986E-002,-4.976127743721008E-001,-8.506349325180054E-001,-3.119421750307083E-002,5.179400742053986E-002,-4.976127743721008E-001,-8.506349325180054E-001,
6.983666666666666E+008,-2.109773457050324E-002,5.279267951846123E-002,-5.205567479133606E-001,-8.418182730674744E-001,-2.109773457050324E-002,5.279267951846123E-002,-5.205567479133606E-001,-8.418182730674744E-001,
7.067333333333334E+008,-1.421574130654335E-002,4.787725582718849E-002,-5.658000707626343E-001,-7.797719240188599E-001,-1.421574130654335E-002,4.787725582718849E-002,-5.658000707626343E-001,-7.797719240188599E-001,
7.151000000000000E+008,-1.302840374410152E-002,4.059270769357681E-002,-5.850508213043213E-001,-7.937190532684326E-001,-1.302840374410152E-002,4.059270769357681E-002,-5.850508213043213E-001,-7.937190532684326E-001,
7.234666666666666E+008,-1.570782437920570E-002,3.553634136915207E-002,-5.967554450035095E-001,-7.814987897872925E-001,-1.570782437920570E-002,3.553634136915207E-002,-5.967554450035095E-001,-7.814987897872925E-001,
7.318333333333334E+008,-2.203845605254173E-002,3.357654809951782E-002,-6.125050187110901E-001,-7.799324393272400E-001,-2.203845605254173E-002,3.357654809951782E-002,-6.125050187110901E-001,-7.799324393272400E-001,
7.402000000000000E+008,-2.798139117658138E-002,3.421517834067345E-002,-6.566525101661682E-001,-7.621970176696777E-001,-2.798139117658138E-002,3.421517834067345E-002,-6.566525101661682E-001,-7.621970176696777E-001,
7.485666666666666E+008,-3.412158414721489E-002,4.069280624389648E-002,-6.551309823989868E-001,-7.583655118942261E-001,-3.412158414721489E-002,4.069280624389648E-002,-6.551309823989868E-001,-7.583655118942261E-001,
7.569333333333334E+008,-3.466192632913590E-002,4.887614026665688E-002,-6.633086800575256E-001,-7.374746799468994E-001,-3.466192632913590E-002,4.887614026665688E-002,-6.633086800575256E-001,-7.374746799468994E-001,
7.653000000000000E+008,-2.893200330436230E-002,5.671041086316109E-002,-6.809824109077454E-001,-7.174205780029297E-001,-2.893200330436230E-002,5.671041086316109E-002,-6.809824109077454E-001,-7.174205780029297E-001,
7.736666666666666E+008,-2.135300636291504E-002,6.304156035184860E-002,-7.135740518569946E-001,-6.919357180595398E-001,-2.135300636291504E-002,6.304156035184860E-002,-7.135740518569946E-001,-6.919357180595398E-001,
7.820333333333334E+008,-1.138390973210335E-002,6.587134301662445E-002,-7.253764271736145E-001,-6.791150569915772E-001,-1.138390973210335E-002,6.587134301662445E-002,-7.253764271736145E-001,-6.791150569915772E-001,
7.904000000000000E+008,-2.914454671554267E-004,6.485459953546524E-002,-7.295926809310913E-001,-6.580855250358582E-001,-2.914454671554267E-004,6.485459953546524E-002,-7.295926809310913E-001,-6.580855250358582E-001,
7.987666666666666E+008,5.032979883253574E-003,5.946921184659004E-002,-7.642103433609009E-001,-6.375218033790588E-001,5.032979883253574E-003,5.946921184659004E-002,-7.642103433609009E-001,-6.375218033790588E-001,
8.071333333333334E+008,8.573009632527828E-003,5.438097193837166E-002,-7.694193124771118E-001,-6.259711384773254E-001,8.573009632527828E-003,5.438097193837166E-002,-7.694193124771118E-001,-6.259711384773254E-001,
8.155000000000000E+008,3.175395773723722E-003,4.857528582215309E-002,-7.926371693611145E-001,-6.042217612266541E-001,3.175395773723722E-003,4.857528582215309E-002,-7.926371693611145E-001,-6.042217612266541E-001,
8.238666666666666E+008,8.040951797738671E-004,4.501289874315262E-002,-7.938601374626160E-001,-5.745132565498352E-001,8.040951797738671E-004,4.501289874315262E-002,-7.938601374626160E-001,-5.745132565498352E-001,
8.322333333333334E+008,-5.770819261670113E-003,4.523217678070068E-002,-8.156504631042481E-001,-5.556296110153198E-001,-5.770819261670113E-003,4.523217678070068E-002,-8.156504631042481E-001,-5.556296110153198E-001,
8.406000000000000E+008,-1.072210911661387E-002,4.915658012032509E-002,-8.266306519508362E-001,-5.421682000160217E-001,-1.072210911661387E-002,4.915658012032509E-002,-8.266306519508362E-001,-5.421682000160217E-001,
8.489666666666668E+008,-1.354497671127319E-002,5.655268952250481E-002,-8.374979496002197E-001,-5.271139740943909E-001,-1.354497671127319E-002,5.655268952250481E-002,-8.374979496002197E-001,-5.271139740943909E-001,
8.573333333333334E+008,-1.082068216055632E-002,6.421539932489395E-002,-8.551334738731384E-001,-4.861361086368561E-001,-1.082068216055632E-002,6.421539932489395E-002,-8.551334738731384E-001,-4.861361086368561E-001,
8.657000000000000E+008,-1.085637020878494E-003,7.119025290012360E-002,-8.712855577468872E-001,-4.662650823593140E-001,-1.085637020878494E-003,7.119025290012360E-002,-8.712855577468872E-001,-4.662650823593140E-001,
8.740666666666668E+008,7.655224762856960E-003,7.360911369323731E-002,-8.688433170318604E-001,-4.540534317493439E-001,7.655224762856960E-003,7.360911369323731E-002,-8.688433170318604E-001,-4.540534317493439E-001,
8.824333333333334E+008,1.851179823279381E-002,7.271553575992584E-002,-8.866344690322876E-001,-4.392013847827911E-001,1.851179823279381E-002,7.271553575992584E-002,-8.866344690322876E-001,-4.392013847827911E-001,
8.908000000000000E+008,2.837126702070236E-002,6.769360601902008E-002,-8.870236277580261E-001,-4.071569740772247E-001,2.837126702070236E-002,6.769360601902008E-002,-8.870236277580261E-001,-4.071569740772247E-001,
8.991666666666668E+008,3.259800001978874E-002,6.067514047026634E-002,-9.021114110946655E-001,-3.793527781963348E-001,3.259800001978874E-002,6.067514047026634E-002,-9.021114110946655E-001,-3.793527781963348E-001,
9.075333333333334E+008,3.357254713773727E-002,5.387883633375168E-002,-9.320847392082214E-001,-3.612889945507050E-001,3.357254713773727E-002,5.387883633375168E-002,-9.320847392082214E-001,-3.612889945507050E-001,
9.159000000000000E+008,3.123178891837597E-002,5.103302374482155E-002,-9.380895495414734E-001,-3.326657414436340E-001,3.123178891837597E-002,5.103302374482155E-002,-9.380895495414734E-001,-3.326657414436340E-001,
9.242666666666668E+008,2.645428664982319E-002,4.771156981587410E-002,-9.430479407310486E-001,-3.179887235164642E-001,2.645428664982319E-002,4.771156981587410E-002,-9.430479407310486E-001,-3.179887235164642E-001,
9.326333333333334E+008,1.944402605295181E-002,4.856599494814873E-002,-9.643950462341309E-001,-2.943530976772308E-001,1.944402605295181E-002,4.856599494814873E-002,-9.643950462341309E-001,-2.943530976772308E-001,
9.410000000000000E+008,1.640506461262703E-002,5.294153839349747E-002,-9.573652148246765E-001,-2.609349787235260E-001,1.640506461262703E-002,5.294153839349747E-002,-9.573652148246765E-001,-2.609349787235260E-001,
9.493666666666668E+008,1.629475690424442E-002,5.912838131189346E-002,-9.554049968719482E-001,-2.426906079053879E-001,1.629475690424442E-002,5.912838131189346E-002,-9.554049968719482E-001,-2.426906079053879E-001,
9.577333333333334E+008,1.983218081295490E-002,6.718561798334122E-002,-9.713295698165894E-001,-2.189134061336517E-001,1.983218081295490E-002,6.718561798334122E-002,-9.713295698165894E-001,-2.189134061336517E-001,
9.661000000000000E+008,2.978629432618618E-002,7.336590439081192E-002,-9.689406156539917E-001,-1.950481534004211E-001,2.978629432618618E-002,7.336590439081192E-002,-9.689406156539917E-001,-1.950481534004211E-001,
9.744666666666668E+008,3.890939801931381E-002,7.271444052457809E-002,-9.748744964599609E-001,-1.709344983100891E-001,3.890939801931381E-002,7.271444052457809E-002,-9.748744964599609E-001,-1.709344983100891E-001,
9.828333333333334E+008,5.307267606258392E-002,6.889266520738602E-002,-9.770979881286621E-001,-1.501389592885971E-001,5.307267606258392E-002,6.889266520738602E-002,-9.770979881286621E-001,-1.501389592885971E-001,
9.912000000000000E+008,6.116781756281853E-002,6.173951178789139E-002,-9.764978289604187E-001,-1.231509670615196E-001,6.116781756281853E-002,6.173951178789139E-002,-9.764978289604187E-001,-1.231509670615196E-001,
9.995666666666668E+008,6.771606206893921E-002,5.192729830741882E-002,-9.921432137489319E-001,-8.562743663787842E-002,6.771606206893921E-002,5.192729830741882E-002,-9.921432137489319E-001,-8.562743663787842E-002,
1.007933333333333E+009,6.805554777383804E-002,4.233359917998314E-002,-9.907482862472534E-001,-7.101658731698990E-002,6.805554777383804E-002,4.233359917998314E-002,-9.907482862472534E-001,-7.101658731698990E-002,
1.016300000000000E+009,6.251850724220276E-002,3.605623543262482E-002,-9.926460385322571E-001,-4.435990005731583E-002,6.251850724220276E-002,3.605623543262482E-002,-9.926460385322571E-001,-4.435990005731583E-002,
1.024666666666667E+009,5.552094057202339E-002,2.985792420804501E-002,-9.922960400581360E-001,-1.171527151018381E-002,5.552094057202339E-002,2.985792420804501E-002,-9.922960400581360E-001,-1.171527151018381E-002,
1.033033333333333E+009,4.904882237315178E-002,3.239827603101730E-002,-9.922426939010620E-001,7.286327425390482E-003,4.904882237315178E-002,3.239827603101730E-002,-9.922426939010620E-001,7.286327425390482E-003,
1.041400000000000E+009,4.361638426780701E-002,3.790252655744553E-002,-9.775149226188660E-001,4.576411470770836E-002,4.361638426780701E-002,3.790252655744553E-002,-9.775149226188660E-001,4.576411470770836E-002,
1.049766666666667E+009,4.384905844926834E-002,4.543041810393333E-002,-9.894793033599854E-001,6.492501497268677E-002,4.384905844926834E-002,4.543041810393333E-002,-9.894793033599854E-001,6.492501497268677E-002,
1.058133333333333E+009,5.023728311061859E-002,5.107945948839188E-002,-9.833258390426636E-001,8.399755507707596E-002,5.023728311061859E-002,5.107945948839188E-002,-9.833258390426636E-001,8.399755507707596E-002,
1.066500000000000E+009,6.224105879664421E-002,5.386470630764961E-002,-9.901545047760010E-001,1.230260431766510E-001,6.224105879664421E-002,5.386470630764961E-002,-9.901545047760010E-001,1.230260431766510E-001,
1.074866666666667E+009,7.306408882141113E-002,5.083482339978218E-002,-9.718397855758667E-001,1.392758637666702E-001,7.306408882141113E-002,5.083482339978218E-002,-9.718397855758667E-001,1.392758637666702E-001,
1.083233333333334E+009,8.466667681932449E-002,3.824850171804428E-002,-9.703888297080994E-001,1.612217426300049E-001,8.466667681932449E-002,3.824850171804428E-002,-9.703888297080994E-001,1.612217426300049E-001,
1.091600000000000E+009,9.105205535888672E-002,2.717240899801254E-002,-9.613363146781921E-001,1.825775206089020E-001,9.105205535888672E-002,2.717240899801254E-002,-9.613363146781921E-001,1.825775206089020E-001,
1.099966666666667E+009,9.270092099905014E-002,1.207796949893236E-002,-9.647094011306763E-001,2.206632345914841E-001,9.270092099905014E-002,1.207796949893236E-002,-9.647094011306763E-001,2.206632345914841E-001,
1.108333333333334E+009,8.367311954498291E-002,1.103011076338589E-003,-9.433326721191406E-001,2.244292348623276E-001,8.367311954498291E-002,1.103011076338589E-003,-9.433326721191406E-001,2.244292348623276E-001,
1.116700000000000E+009,7.005846500396729E-002,-1.376496802549809E-004,-9.428575634956360E-001,2.694267630577087E-001,7.005846500396729E-002,-1.376496802549809E-004,-9.428575634956360E-001,2.694267630577087E-001,
1.125066666666667E+009,5.792780220508575E-002,6.385500309988856E-004,-9.478191733360291E-001,2.792838811874390E-001,5.792780220508575E-002,6.385500309988856E-004,-9.478191733360291E-001,2.792838811874390E-001,
1.133433333333334E+009,4.941935092210770E-002,1.254683826118708E-002,-9.485515952110291E-001,3.047099113464356E-001,4.941935092210770E-002,1.254683826118708E-002,-9.485515952110291E-001,3.047099113464356E-001,
1.141800000000000E+009,4.939228296279907E-002,2.323660627007484E-002,-9.205060005187988E-001,3.267317116260529E-001,4.939228296279907E-002,2.323660627007484E-002,-9.205060005187988E-001,3.267317116260529E-001,
1.150166666666667E+009,5.668970569968224E-002,3.646483272314072E-002,-9.028288722038269E-001,3.572270572185516E-001,5.668970569968224E-002,3.646483272314072E-002,-9.028288722038269E-001,3.572270572185516E-001,
1.158533333333334E+009,7.124597579240799E-002,4.200208932161331E-002,-9.049019217491150E-001,3.815791904926300E-001,7.124597579240799E-002,4.200208932161331E-002,-9.049019217491150E-001,3.815791904926300E-001,
1.166900000000000E+009,9.077804535627365E-002,3.879262879490852E-002,-8.949168324470520E-001,4.148340523242950E-001,9.077804535627365E-002,3.879262879490852E-002,-8.949168324470520E-001,4.148340523242950E-001,
1.175266666666667E+009,1.054784655570984E-001,2.453415095806122E-002,-8.840461969375610E-001,4.197835326194763E-001,1.054784655570984E-001,2.453415095806122E-002,-8.840461969375610E-001,4.197835326194763E-001,
1.183633333333334E+009,1.164041981101036E-001,6.241789087653160E-003,-8.718165159225464E-001,4.567894935607910E-001,1.164041981101036E-001,6.241789087653160E-003,-8.718165159225464E-001,4.567894935607910E-001,
1.192000000000000E+009,1.167113259434700E-001,-1.606463640928268E-002,-8.622181415557861E-001,4.635646045207977E-001,1.167113259434700E-001,-1.606463640928268E-002,-8.622181415557861E-001,4.635646045207977E-001,
1.200366666666667E+009,1.054309383034706E-001,-3.261572867631912E-002,-8.535483479499817E-001,4.911803007125855E-001,1.054309383034706E-001,-3.261572867631912E-002,-8.535483479499817E-001,4.911803007125855E-001,
1.208733333333334E+009,8.968742936849594E-002,-4.288497939705849E-002,-8.481693863868713E-001,5.079197883605957E-001,8.968742936849594E-002,-4.288497939705849E-002,-8.481693863868713E-001,5.079197883605957E-001,
1.217100000000000E+009,7.160077989101410E-002,-4.022741690278053E-002,-8.338605761528015E-001,5.288474559783936E-001,7.160077989101410E-002,-4.022741690278053E-002,-8.338605761528015E-001,5.288474559783936E-001,
1.225466666666667E+009,6.038993597030640E-002,-3.259684890508652E-002,-8.089984655380249E-001,5.563203096389771E-001,6.038993597030640E-002,-3.259684890508652E-002,-8.089984655380249E-001,5.563203096389771E-001,
1.233833333333334E+009,5.378440767526627E-002,-1.679820381104946E-002,-7.922994494438171E-001,5.751657485961914E-001,5.378440767526627E-002,-1.679820381104946E-002,-7.922994494438171E-001,5.751657485961914E-001,
1.242200000000000E+009,5.788783729076386E-002,-1.356928260065615E-003,-7.775345444679260E-001,5.886821150779724E-001,5.788783729076386E-002,-1.356928260065615E-003,-7.775345444679260E-001,5.886821150779724E-001,
1.250566666666667E+009,7.287214696407318E-002,6.127749104052782E-003,-7.501311302185059E-001,6.163792610168457E-001,7.287214696407318E-002,6.127749104052782E-003,-7.501311302185059E-001,6.163792610168457E-001,
1.258933333333334E+009,9.037450700998306E-002,3.863300662487745E-003,-7.596023678779602E-001,6.358101963996887E-001,9.037450700998306E-002,3.863300662487745E-003,-7.596023678779602E-001,6.358101963996887E-001,
1.267300000000000E+009,1.067772731184959E-001,-1.049837470054627E-002,-7.376978993415833E-001,6.485136747360230E-001,1.067772731184959E-001,-1.049837470054627E-002,-7.376978993415833E-001,6.485136747360230E-001,
1.275666666666667E+009,1.156950443983078E-001,-3.132899850606918E-002,-7.038499712944031E-001,6.710453629493713E-001,1.156950443983078E-001,-3.132899850606918E-002,-7.038499712944031E-001,6.710453629493713E-001,
1.284033333333334E+009,1.132831498980522E-001,-5.546724796295166E-002,-6.965474486351013E-001,6.888822317123413E-001,1.132831498980522E-001,-5.546724796295166E-002,-6.965474486351013E-001,6.888822317123413E-001,
1.292400000000000E+009,1.007763296365738E-001,-7.531824707984924E-002,-6.857254505157471E-001,7.040740251541138E-001,1.007763296365738E-001,-7.531824707984924E-002,-6.857254505157471E-001,7.040740251541138E-001,
1.300766666666667E+009,8.122126758098602E-002,-8.434720337390900E-002,-6.628732681274414E-001,7.194335460662842E-001,8.122126758098602E-002,-8.434720337390900E-002,-6.628732681274414E-001,7.194335460662842E-001,
1.309133333333334E+009,5.887900292873383E-002,-8.365990966558456E-002,-6.519445776939392E-001,7.367043495178223E-001,5.887900292873383E-002,-8.365990966558456E-002,-6.519445776939392E-001,7.367043495178223E-001,
1.317500000000000E+009,4.551789909601212E-002,-7.258965820074081E-002,-6.277268528938294E-001,7.515739798545837E-001,4.551789909601212E-002,-7.258965820074081E-002,-6.277268528938294E-001,7.515739798545837E-001,
1.325866666666667E+009,3.923686593770981E-002,-5.427290871739388E-002,-6.125982403755188E-001,7.668552398681641E-001,3.923686593770981E-002,-5.427290871739388E-002,-6.125982403755188E-001,7.668552398681641E-001,
1.334233333333334E+009,4.531009495258331E-002,-3.841483220458031E-002,-5.834924578666687E-001,7.885023951530457E-001,4.531009495258331E-002,-3.841483220458031E-002,-5.834924578666687E-001,7.885023951530457E-001,
1.342600000000000E+009,5.815012753009796E-002,-3.174444660544395E-002,-5.641106963157654E-001,8.071787953376770E-001,5.815012753009796E-002,-3.174444660544395E-002,-5.641106963157654E-001,8.071787953376770E-001,
1.350966666666667E+009,7.503872364759445E-002,-3.569649904966354E-002,-5.325983762741089E-001,8.308936357498169E-001,7.503872364759445E-002,-3.569649904966354E-002,-5.325983762741089E-001,8.308936357498169E-001,
1.359333333333334E+009,8.939944207668304E-002,-4.948045685887337E-002,-5.209664106369019E-001,8.318817019462585E-001,8.939944207668304E-002,-4.948045685887337E-002,-5.209664106369019E-001,8.318817019462585E-001,
1.367700000000000E+009,8.940344303846359E-002,-7.258496433496475E-002,-5.032228827476502E-001,8.394175171852112E-001,8.940344303846359E-002,-7.258496433496475E-002,-5.032228827476502E-001,8.394175171852112E-001,
1.376066666666667E+009,8.235372602939606E-002,-9.326869994401932E-002,-4.880000948905945E-001,8.545204997062683E-001,8.235372602939606E-002,-9.326869994401932E-002,-4.880000948905945E-001,8.545204997062683E-001,
1.384433333333334E+009,6.326346099376679E-002,-1.117514669895172E-001,-4.633490741252899E-001,8.757086992263794E-001,6.326346099376679E-002,-1.117514669895172E-001,-4.633490741252899E-001,8.757086992263794E-001,
1.392800000000000E+009,3.986144810914993E-002,-1.158854737877846E-001,-4.500917494297028E-001,8.703301548957825E-001,3.986144810914993E-002,-1.158854737877846E-001,-4.500917494297028E-001,8.703301548957825E-001,
1.401166666666667E+009,1.846703141927719E-002,-1.079267561435700E-001,-4.269461035728455E-001,8.894072175025940E-001,1.846703141927719E-002,-1.079267561435700E-001,-4.269461035728455E-001,8.894072175025940E-001,
1.409533333333334E+009,3.819554345682263E-003,-9.161406010389328E-002,-3.966566026210785E-001,9.013050794601440E-001,3.819554345682263E-003,-9.161406010389328E-002,-3.966566026210785E-001,9.013050794601440E-001,
1.417900000000000E+009,1.255162293091416E-003,-6.805457919836044E-002,-3.832405805587769E-001,8.970858454704285E-001,1.255162293091416E-003,-6.805457919836044E-002,-3.832405805587769E-001,8.970858454704285E-001,
1.426266666666667E+009,1.151464227586985E-002,-5.237394571304321E-002,-3.502162992954254E-001,9.223945736885071E-001,1.151464227586985E-002,-5.237394571304321E-002,-3.502162992954254E-001,9.223945736885071E-001,
1.434633333333334E+009,2.906344644725323E-002,-4.270074144005776E-002,-3.161862492561340E-001,9.317790865898132E-001,2.906344644725323E-002,-4.270074144005776E-002,-3.161862492561340E-001,9.317790865898132E-001,
1.443000000000000E+009,4.713299125432968E-002,-4.612839967012405E-002,-2.985526025295258E-001,9.361813068389893E-001,4.713299125432968E-002,-4.612839967012405E-002,-2.985526025295258E-001,9.361813068389893E-001,
1.451366666666667E+009,6.080716848373413E-002,-6.007785350084305E-002,-2.664808928966522E-001,9.381100535392761E-001,6.080716848373413E-002,-6.007785350084305E-002,-2.664808928966522E-001,9.381100535392761E-001,
1.459733333333334E+009,6.541129201650620E-002,-8.415080606937408E-002,-2.492899894714356E-001,9.406194090843201E-001,6.541129201650620E-002,-8.415080606937408E-002,-2.492899894714356E-001,9.406194090843201E-001,
