% Version 1.00
%
%freq[Hz],re:Trc1_S11,im:Trc1_S11,re:Trc2_S21,im:Trc2_S21,re:Trc3_S11,im:Trc3_S11,re:Trc4_S21,im:Trc4_S21,
6.900000000000000E+008,-3.103291615843773E-002,5.180682986974716E-002,-4.981065094470978E-001,-8.498363494873047E-001,-3.103291615843773E-002,5.180682986974716E-002,-4.981065094470978E-001,-8.498363494873047E-001,
6.983666666666666E+008,-2.094662562012672E-002,5.277004465460777E-002,-5.213295221328735E-001,-8.418881893157959E-001,-2.094662562012672E-002,5.277004465460777E-002,-5.213295221328735E-001,-8.418881893157959E-001,
7.067333333333334E+008,-1.416559889912605E-002,4.778271540999413E-002,-5.656141638755798E-001,-7.793549895286560E-001,-1.416559889912605E-002,4.778271540999413E-002,-5.656141638755798E-001,-7.793549895286560E-001,
7.151000000000000E+008,-1.299590617418289E-002,4.042058438062668E-002,-5.851311683654785E-001,-7.928739190101624E-001,-1.299590617418289E-002,4.042058438062668E-002,-5.851311683654785E-001,-7.928739190101624E-001,
7.234666666666666E+008,-1.576771959662437E-002,3.536616265773773E-002,-5.972431898117065E-001,-7.814303636550903E-001,-1.576771959662437E-002,3.536616265773773E-002,-5.972431898117065E-001,-7.814303636550903E-001,
7.318333333333334E+008,-2.213478833436966E-002,3.342004865407944E-002,-6.119922995567322E-001,-7.794501185417175E-001,-2.213478833436966E-002,3.342004865407944E-002,-6.119922995567322E-001,-7.794501185417175E-001,
7.402000000000000E+008,-2.806107886135578E-002,3.419727832078934E-002,-6.572587490081787E-001,-7.617263197898865E-001,-2.806107886135578E-002,3.419727832078934E-002,-6.572587490081787E-001,-7.617263197898865E-001,
7.485666666666666E+008,-3.424862399697304E-002,4.069722816348076E-002,-6.554207801818848E-001,-7.581697702407837E-001,-3.424862399697304E-002,4.069722816348076E-002,-6.554207801818848E-001,-7.581697702407837E-001,
7.569333333333334E+008,-3.464030101895332E-002,4.893560707569122E-002,-6.630085110664368E-001,-7.373237609863281E-001,-3.464030101895332E-002,4.893560707569122E-002,-6.630085110664368E-001,-7.373237609863281E-001,
7.653000000000000E+008,-2.889452688395977E-002,5.679780989885330E-002,-6.816430687904358E-001,-7.168878316879273E-001,-2.889452688395977E-002,5.679780989885330E-002,-6.816430687904358E-001,-7.168878316879273E-001,
7.736666666666666E+008,-2.123961597681046E-002,6.305717676877976E-002,-7.143455147743225E-001,-6.910808682441711E-001,-2.123961597681046E-002,6.305717676877976E-002,-7.143455147743225E-001,-6.910808682441711E-001,
7.820333333333334E+008,-1.124583091586828E-002,6.590358167886734E-002,-7.254797220230103E-001,-6.785606741905212E-001,-1.124583091586828E-002,6.590358167886734E-002,-7.254797220230103E-001,-6.785606741905212E-001,
7.904000000000000E+008,-1.195680306409486E-004,6.484465301036835E-002,-7.300908565521240E-001,-6.573783755302429E-001,-1.195680306409486E-004,6.484465301036835E-002,-7.300908565521240E-001,-6.573783755302429E-001,
7.987666666666666E+008,5.101792514324188E-003,5.930098146200180E-002,-7.642041444778442E-001,-6.371420025825501E-001,5.101792514324188E-003,5.930098146200180E-002,-7.642041444778442E-001,-6.371420025825501E-001,
8.071333333333334E+008,8.512287400662899E-003,5.419171974062920E-002,-7.693111896514893E-001,-6.252591609954834E-001,8.512287400662899E-003,5.419171974062920E-002,-7.693111896514893E-001,-6.252591609954834E-001,
8.155000000000000E+008,3.123568138107657E-003,4.849911108613014E-002,-7.929428815841675E-001,-6.039383411407471E-001,3.123568138107657E-003,4.849911108613014E-002,-7.929428815841675E-001,-6.039383411407471E-001,
8.238666666666666E+008,6.990648107603192E-004,4.498274996876717E-002,-7.943881750106812E-001,-5.740004777908325E-001,6.990648107603192E-004,4.498274996876717E-002,-7.943881750106812E-001,-5.740004777908325E-001,
8.322333333333334E+008,-5.874943919479847E-003,4.525976628065109E-002,-8.167451024055481E-001,-5.550871491432190E-001,-5.874943919479847E-003,4.525976628065109E-002,-8.167451024055481E-001,-5.550871491432190E-001,
8.406000000000000E+008,-1.075874455273151E-002,4.918145015835762E-002,-8.270140290260315E-001,-5.420466065406799E-001,-1.075874455273151E-002,4.918145015835762E-002,-8.270140290260315E-001,-5.420466065406799E-001,
8.489666666666668E+008,-1.354670990258455E-002,5.661083757877350E-002,-8.377671241760254E-001,-5.270039439201355E-001,-1.354670990258455E-002,5.661083757877350E-002,-8.377671241760254E-001,-5.270039439201355E-001,
8.573333333333334E+008,-1.075144205242395E-002,6.431095302104950E-002,-8.553207516670227E-001,-4.858205020427704E-001,-1.075144205242395E-002,6.431095302104950E-002,-8.553207516670227E-001,-4.858205020427704E-001,
8.657000000000000E+008,-9.619250777177513E-004,7.118383795022965E-002,-8.716167211532593E-001,-4.653027653694153E-001,-9.619250777177513E-004,7.118383795022965E-002,-8.716167211532593E-001,-4.653027653694153E-001,
8.740666666666668E+008,7.803951855748892E-003,7.359713315963745E-002,-8.694311380386353E-001,-4.537692666053772E-001,7.803951855748892E-003,7.359713315963745E-002,-8.694311380386353E-001,-4.537692666053772E-001,
8.824333333333334E+008,1.860242150723934E-002,7.272335886955261E-002,-8.867321014404297E-001,-4.386514425277710E-001,1.860242150723934E-002,7.272335886955261E-002,-8.867321014404297E-001,-4.386514425277710E-001,
8.908000000000000E+008,2.839895337820053E-002,6.760708987712860E-002,-8.872873187065125E-001,-4.070121943950653E-001,2.839895337820053E-002,6.760708987712860E-002,-8.872873187065125E-001,-4.070121943950653E-001,
8.991666666666668E+008,3.250328451395035E-002,6.059750914573669E-002,-9.022242426872253E-001,-3.799621164798737E-001,3.250328451395035E-002,6.059750914573669E-002,-9.022242426872253E-001,-3.799621164798737E-001,
9.075333333333334E+008,3.354197740554810E-002,5.379797145724297E-002,-9.318899512290955E-001,-3.606659173965454E-001,3.354197740554810E-002,5.379797145724297E-002,-9.318899512290955E-001,-3.606659173965454E-001,
9.159000000000000E+008,3.116104193031788E-002,5.100566148757935E-002,-9.384434819221497E-001,-3.322460353374481E-001,3.116104193031788E-002,5.100566148757935E-002,-9.384434819221497E-001,-3.322460353374481E-001,
9.242666666666668E+008,2.642647176980972E-002,4.773967713117600E-002,-9.435073733329773E-001,-3.176594376564026E-001,2.642647176980972E-002,4.773967713117600E-002,-9.435073733329773E-001,-3.176594376564026E-001,
9.326333333333334E+008,1.940530352294445E-002,4.862340912222862E-002,-9.643950462341309E-001,-2.936097979545593E-001,1.940530352294445E-002,4.862340912222862E-002,-9.643950462341309E-001,-2.936097979545593E-001,
9.410000000000000E+008,1.644947007298470E-002,5.300907790660858E-002,-9.580368399620056E-001,-2.604353725910187E-001,1.644947007298470E-002,5.300907790660858E-002,-9.580368399620056E-001,-2.604353725910187E-001,
9.493666666666668E+008,1.639406383037567E-002,5.917542427778244E-002,-9.555314779281616E-001,-2.420042008161545E-001,1.639406383037567E-002,5.917542427778244E-002,-9.555314779281616E-001,-2.420042008161545E-001,
9.577333333333334E+008,1.998131535947323E-002,6.708138436079025E-002,-9.716586470603943E-001,-2.185100466012955E-001,1.998131535947323E-002,6.708138436079025E-002,-9.716586470603943E-001,-2.185100466012955E-001,
9.661000000000000E+008,2.996277995407581E-002,7.329786568880081E-002,-9.686664342880249E-001,-1.948156505823135E-001,2.996277995407581E-002,7.329786568880081E-002,-9.686664342880249E-001,-1.948156505823135E-001,
9.744666666666668E+008,3.900381922721863E-002,7.256282866001129E-002,-9.745188951492310E-001,-1.703807860612869E-001,3.900381922721863E-002,7.256282866001129E-002,-9.745188951492310E-001,-1.703807860612869E-001,
9.828333333333334E+008,5.320706218481064E-002,6.888289749622345E-002,-9.774341583251953E-001,-1.496199071407318E-001,5.320706218481064E-002,6.888289749622345E-002,-9.774341583251953E-001,-1.496199071407318E-001,
9.912000000000000E+008,6.122850626707077E-002,6.178634986281395E-002,-9.765852093696594E-001,-1.227042749524117E-001,6.122850626707077E-002,6.178634986281395E-002,-9.765852093696594E-001,-1.227042749524117E-001,
9.995666666666668E+008,6.774430721998215E-002,5.206317827105522E-002,-9.925252795219421E-001,-8.533835411071777E-002,6.774430721998215E-002,5.206317827105522E-002,-9.925252795219421E-001,-8.533835411071777E-002,
1.007933333333333E+009,6.805089116096497E-002,4.238356277346611E-002,-9.905079007148743E-001,-7.019949704408646E-002,6.805089116096497E-002,4.238356277346611E-002,-9.905079007148743E-001,-7.019949704408646E-002,
1.016300000000000E+009,6.249834597110748E-002,3.612874448299408E-002,-9.924016594886780E-001,-4.421378672122955E-002,6.249834597110748E-002,3.612874448299408E-002,-9.924016594886780E-001,-4.421378672122955E-002,
1.024666666666667E+009,5.559864640235901E-002,2.992612868547440E-002,-9.923123121261597E-001,-1.139054540544748E-002,5.559864640235901E-002,2.992612868547440E-002,-9.923123121261597E-001,-1.139054540544748E-002,
1.033033333333333E+009,4.909131675958633E-002,3.239411860704422E-002,-9.919834136962891E-001,7.564116269350052E-003,4.909131675958633E-002,3.239411860704422E-002,-9.919834136962891E-001,7.564116269350052E-003,
1.041400000000000E+009,4.369300231337547E-002,3.784225508570671E-002,-9.777786731719971E-001,4.598908871412277E-002,4.369300231337547E-002,3.784225508570671E-002,-9.777786731719971E-001,4.598908871412277E-002,
1.049766666666667E+009,4.393884167075157E-002,4.532808065414429E-002,-9.899184107780457E-001,6.598944962024689E-002,4.393884167075157E-002,4.532808065414429E-002,-9.899184107780457E-001,6.598944962024689E-002,
1.058133333333333E+009,5.029900744557381E-002,5.089884251356125E-002,-9.835324287414551E-001,8.435583114624023E-002,5.029900744557381E-002,5.089884251356125E-002,-9.835324287414551E-001,8.435583114624023E-002,
1.066500000000000E+009,6.233503669500351E-002,5.371312052011490E-002,-9.900736212730408E-001,1.233038604259491E-001,6.233503669500351E-002,5.371312052011490E-002,-9.900736212730408E-001,1.233038604259491E-001,
1.074866666666667E+009,7.319928705692291E-002,5.065185949206352E-002,-9.725304841995239E-001,1.407364755868912E-001,7.319928705692291E-002,5.065185949206352E-002,-9.725304841995239E-001,1.407364755868912E-001,
1.083233333333334E+009,8.473359048366547E-002,3.820433467626572E-002,-9.705584645271301E-001,1.616431325674057E-001,8.473359048366547E-002,3.820433467626572E-002,-9.705584645271301E-001,1.616431325674057E-001,
1.091600000000000E+009,9.116027504205704E-002,2.727448381483555E-002,-9.614108204841614E-001,1.830030381679535E-001,9.116027504205704E-002,2.727448381483555E-002,-9.614108204841614E-001,1.830030381679535E-001,
1.099966666666667E+009,9.281116724014282E-002,1.214488316327334E-002,-9.649688005447388E-001,2.215832322835922E-001,9.281116724014282E-002,1.214488316327334E-002,-9.649688005447388E-001,2.215832322835922E-001,
1.108333333333334E+009,8.374753594398499E-002,1.233233138918877E-003,-9.430378079414368E-001,2.251351475715637E-001,8.374753594398499E-002,1.233233138918877E-003,-9.430378079414368E-001,2.251351475715637E-001,
1.116700000000000E+009,7.011275738477707E-002,-1.600992072781082E-005,-9.430880546569824E-001,2.698125839233398E-001,7.011275738477707E-002,-1.600992072781082E-005,-9.430880546569824E-001,2.698125839233398E-001,
1.125066666666667E+009,5.804342031478882E-002,7.143083494156599E-004,-9.478651285171509E-001,2.800084650516510E-001,5.804342031478882E-002,7.143083494156599E-004,-9.478651285171509E-001,2.800084650516510E-001,
1.133433333333334E+009,4.957282170653343E-002,1.257987599819899E-002,-9.483129382133484E-001,3.052819371223450E-001,4.957282170653343E-002,1.257987599819899E-002,-9.483129382133484E-001,3.052819371223450E-001,
1.141800000000000E+009,4.948267340660095E-002,2.310316637158394E-002,-9.200685620307922E-001,3.264540731906891E-001,4.948267340660095E-002,2.310316637158394E-002,-9.200685620307922E-001,3.264540731906891E-001,
1.150166666666667E+009,5.670558288693428E-002,3.625537455081940E-002,-9.035703539848328E-001,3.573697209358215E-001,5.670558288693428E-002,3.625537455081940E-002,-9.035703539848328E-001,3.573697209358215E-001,
1.158533333333334E+009,7.119398564100266E-002,4.179295524954796E-002,-9.049422144889832E-001,3.819125294685364E-001,7.119398564100266E-002,4.179295524954796E-002,-9.049422144889832E-001,3.819125294685364E-001,
1.166900000000000E+009,9.081812947988510E-002,3.862882405519486E-002,-8.948336839675903E-001,4.154947102069855E-001,9.081812947988510E-002,3.862882405519486E-002,-8.948336839675903E-001,4.154947102069855E-001,
1.175266666666667E+009,1.055085137486458E-001,2.440613694489002E-002,-8.839141726493835E-001,4.205236434936523E-001,1.055085137486458E-001,2.440613694489002E-002,-8.839141726493835E-001,4.205236434936523E-001,
1.183633333333334E+009,1.165753081440926E-001,6.113948300480843E-003,-8.719594478607178E-001,4.576182961463928E-001,1.165753081440926E-001,6.113948300480843E-003,-8.719594478607178E-001,4.576182961463928E-001,
1.192000000000000E+009,1.168726459145546E-001,-1.606751419603825E-002,-8.621183633804321E-001,4.638844728469849E-001,1.168726459145546E-001,-1.606751419603825E-002,-8.621183633804321E-001,4.638844728469849E-001,
1.200366666666667E+009,1.056759431958199E-001,-3.255429863929749E-002,-8.535804748535156E-001,4.919168949127197E-001,1.056759431958199E-001,-3.255429863929749E-002,-8.535804748535156E-001,4.919168949127197E-001,
1.208733333333334E+009,8.991995453834534E-002,-4.285389930009842E-002,-8.483456373214722E-001,5.088936686515808E-001,8.991995453834534E-002,-4.285389930009842E-002,-8.483456373214722E-001,5.088936686515808E-001,
1.217100000000000E+009,7.180151343345642E-002,-4.022663086652756E-002,-8.331419825553894E-001,5.293448567390442E-001,7.180151343345642E-002,-4.022663086652756E-002,-8.331419825553894E-001,5.293448567390442E-001,
1.225466666666667E+009,6.049658358097076E-002,-3.265349566936493E-002,-8.088535070419312E-001,5.565873980522156E-001,6.049658358097076E-002,-3.265349566936493E-002,-8.088535070419312E-001,5.565873980522156E-001,
1.233833333333334E+009,5.384862795472145E-002,-1.687333546578884E-002,-7.923164963722229E-001,5.755316019058228E-001,5.384862795472145E-002,-1.687333546578884E-002,-7.923164963722229E-001,5.755316019058228E-001,
1.242200000000000E+009,5.788048729300499E-002,-1.469505601562560E-003,-7.772975564002991E-001,5.893557667732239E-001,5.788048729300499E-002,-1.469505601562560E-003,-7.772975564002991E-001,5.893557667732239E-001,
1.250566666666667E+009,7.282546162605286E-002,6.007563788443804E-003,-7.498015165328980E-001,6.171473264694214E-001,7.282546162605286E-002,6.007563788443804E-003,-7.498015165328980E-001,6.171473264694214E-001,
1.258933333333334E+009,9.027734398841858E-002,3.758211387321353E-003,-7.591845393180847E-001,6.365996599197388E-001,9.027734398841858E-002,3.758211387321353E-003,-7.591845393180847E-001,6.365996599197388E-001,
1.267300000000000E+009,1.068218201398850E-001,-1.068240124732256E-002,-7.373486161231995E-001,6.491262316703796E-001,1.068218201398850E-001,-1.068240124732256E-002,-7.373486161231995E-001,6.491262316703796E-001,
1.275666666666667E+009,1.157433986663818E-001,-3.140529990196228E-002,-7.037332653999329E-001,6.714126467704773E-001,1.157433986663818E-001,-3.140529990196228E-002,-7.037332653999329E-001,6.714126467704773E-001,
1.284033333333334E+009,1.134927347302437E-001,-5.555970594286919E-002,-6.968345046043396E-001,6.900068521499634E-001,1.134927347302437E-001,-5.555970594286919E-002,-6.968345046043396E-001,6.900068521499634E-001,
1.292400000000000E+009,1.010046377778053E-001,-7.534614205360413E-002,-6.850218176841736E-001,7.045681476593018E-001,1.010046377778053E-001,-7.534614205360413E-002,-6.850218176841736E-001,7.045681476593018E-001,
1.300766666666667E+009,8.151105046272278E-002,-8.442744612693787E-002,-6.626042127609253E-001,7.205250859260559E-001,8.151105046272278E-002,-8.442744612693787E-002,-6.626042127609253E-001,7.205250859260559E-001,
1.309133333333334E+009,5.905064195394516E-002,-8.375233411788940E-002,-6.518617272377014E-001,7.372519373893738E-001,5.905064195394516E-002,-8.375233411788940E-002,-6.518617272377014E-001,7.372519373893738E-001,
1.317500000000000E+009,4.568711668252945E-002,-7.277604192495346E-002,-6.267847418785095E-001,7.526360154151917E-001,4.568711668252945E-002,-7.277604192495346E-002,-6.267847418785095E-001,7.526360154151917E-001,
1.325866666666667E+009,3.934219107031822E-002,-5.440146476030350E-002,-6.119097471237183E-001,7.680180072784424E-001,3.934219107031822E-002,-5.440146476030350E-002,-6.119097471237183E-001,7.680180072784424E-001,
1.334233333333334E+009,4.522716253995895E-002,-3.846602514386177E-002,-5.830196142196655E-001,7.893021702766419E-001,4.522716253995895E-002,-3.846602514386177E-002,-5.830196142196655E-001,7.893021702766419E-001,
1.342600000000000E+009,5.802090838551521E-002,-3.181052207946777E-002,-5.635469555854797E-001,8.073115944862366E-001,5.802090838551521E-002,-3.181052207946777E-002,-5.635469555854797E-001,8.073115944862366E-001,
1.350966666666667E+009,7.495809346437454E-002,-3.564926609396935E-002,-5.317828059196472E-001,8.308910727500916E-001,7.495809346437454E-002,-3.564926609396935E-002,-5.317828059196472E-001,8.308910727500916E-001,
1.359333333333334E+009,8.938295394182205E-002,-4.960329830646515E-002,-5.209310650825501E-001,8.322304487228394E-001,8.938295394182205E-002,-4.960329830646515E-002,-5.209310650825501E-001,8.322304487228394E-001,
1.367700000000000E+009,8.939415216445923E-002,-7.270292192697525E-002,-5.029748678207398E-001,8.400108814239502E-001,8.939415216445923E-002,-7.270292192697525E-002,-5.029748678207398E-001,8.400108814239502E-001,
1.376066666666667E+009,8.242939412593842E-002,-9.349126368761063E-002,-4.876464903354645E-001,8.552752137184143E-001,8.242939412593842E-002,-9.349126368761063E-002,-4.876464903354645E-001,8.552752137184143E-001,
1.384433333333334E+009,6.337480992078781E-002,-1.119206920266151E-001,-4.622285664081574E-001,8.763780593872070E-001,6.337480992078781E-002,-1.119206920266151E-001,-4.622285664081574E-001,8.763780593872070E-001,
1.392800000000000E+009,4.003487527370453E-002,-1.160551905632019E-001,-4.495195746421814E-001,8.712859749794006E-001,4.003487527370453E-002,-1.160551905632019E-001,-4.495195746421814E-001,8.712859749794006E-001,
1.401166666666667E+009,1.864251121878624E-002,-1.080446541309357E-001,-4.266393780708313E-001,8.898737430572510E-001,1.864251121878624E-002,-1.080446541309357E-001,-4.266393780708313E-001,8.898737430572510E-001,
1.409533333333334E+009,3.952242434024811E-003,-9.175529330968857E-002,-3.959510028362274E-001,9.020658731460571E-001,3.952242434024811E-003,-9.175529330968857E-002,-3.959510028362274E-001,9.020658731460571E-001,
1.417900000000000E+009,1.268123160116375E-003,-6.815484911203384E-002,-3.830727934837341E-001,8.974739909172058E-001,1.268123160116375E-003,-6.815484911203384E-002,-3.830727934837341E-001,8.974739909172058E-001,
1.426266666666667E+009,1.147104054689407E-002,-5.237724259495735E-002,-3.503955304622650E-001,9.228473305702210E-001,1.147104054689407E-002,-5.237724259495735E-002,-3.503955304622650E-001,9.228473305702210E-001,
1.434633333333334E+009,2.908661402761936E-002,-4.266809672117233E-002,-3.157044053077698E-001,9.325655698776245E-001,2.908661402761936E-002,-4.266809672117233E-002,-3.157044053077698E-001,9.325655698776245E-001,
1.443000000000000E+009,4.709346219897270E-002,-4.607894271612167E-002,-2.984876632690430E-001,9.365816116333008E-001,4.709346219897270E-002,-4.607894271612167E-002,-2.984876632690430E-001,9.365816116333008E-001,
1.451366666666667E+009,6.068300828337669E-002,-6.015331670641899E-002,-2.660552263259888E-001,9.391289353370667E-001,6.068300828337669E-002,-6.015331670641899E-002,-2.660552263259888E-001,9.391289353370667E-001,
1.459733333333334E+009,6.540972739458084E-002,-8.422412723302841E-002,-2.494145035743713E-001,9.414618611335754E-001,6.540972739458084E-002,-8.422412723302841E-002,-2.494145035743713E-001,9.414618611335754E-001,
