% Version 1.00
%
%freq[Hz],re:Trc1_S11,im:Trc1_S11,re:Trc2_S21,im:Trc2_S21,re:Trc3_S11,im:Trc3_S11,re:Trc4_S21,im:Trc4_S21,
6.900000000000000E+008,-5.687339976429939E-002,1.706863939762116E-002,-4.995223283767700E-001,-8.493968248367310E-001,-5.687339976429939E-002,1.706863939762116E-002,-4.995223283767700E-001,-8.493968248367310E-001,
6.983666666666666E+008,-4.801223427057266E-002,1.775958761572838E-002,-5.225079655647278E-001,-8.405379056930542E-001,-4.801223427057266E-002,1.775958761572838E-002,-5.225079655647278E-001,-8.405379056930542E-001,
7.067333333333334E+008,-4.222917929291725E-002,1.251362822949886E-002,-5.673812031745911E-001,-7.783790826797485E-001,-4.222917929291725E-002,1.251362822949886E-002,-5.673812031745911E-001,-7.783790826797485E-001,
7.151000000000000E+008,-4.271166026592255E-002,5.308358464390039E-003,-5.865977406501770E-001,-7.913458347320557E-001,-4.271166026592255E-002,5.308358464390039E-003,-5.865977406501770E-001,-7.913458347320557E-001,
7.234666666666666E+008,-4.680043458938599E-002,3.913131076842547E-004,-5.983804464340210E-001,-7.781139016151428E-001,-4.680043458938599E-002,3.913131076842547E-004,-5.983804464340210E-001,-7.781139016151428E-001,
7.318333333333334E+008,-5.490197613835335E-002,-1.580517506226897E-003,-6.127207279205322E-001,-7.774038910865784E-001,-5.490197613835335E-002,-1.580517506226897E-003,-6.127207279205322E-001,-7.774038910865784E-001,
7.402000000000000E+008,-6.208175420761108E-002,-7.794649573042989E-004,-6.577569246292114E-001,-7.601621747016907E-001,-6.208175420761108E-002,-7.794649573042989E-004,-6.577569246292114E-001,-7.601621747016907E-001,
7.485666666666666E+008,-7.008843868970871E-002,5.875431932508946E-003,-6.561757326126099E-001,-7.562987804412842E-001,-7.008843868970871E-002,5.875431932508946E-003,-6.561757326126099E-001,-7.562987804412842E-001,
7.569333333333334E+008,-7.239700853824616E-002,1.417937502264977E-002,-6.629242897033691E-001,-7.359444499015808E-001,-7.239700853824616E-002,1.417937502264977E-002,-6.629242897033691E-001,-7.359444499015808E-001,
7.653000000000000E+008,-6.855732947587967E-002,2.243464812636375E-002,-6.819409132003784E-001,-7.161434292793274E-001,-6.855732947587967E-002,2.243464812636375E-002,-6.819409132003784E-001,-7.161434292793274E-001,
7.736666666666666E+008,-6.221077218651772E-002,2.869040705263615E-002,-7.145713567733765E-001,-6.898210644721985E-001,-6.221077218651772E-002,2.869040705263615E-002,-7.145713567733765E-001,-6.898210644721985E-001,
7.820333333333334E+008,-5.412803962826729E-002,3.197718039155006E-002,-7.267690300941467E-001,-6.775375604629517E-001,-5.412803962826729E-002,3.197718039155006E-002,-7.267690300941467E-001,-6.775375604629517E-001,
7.904000000000000E+008,-4.497510194778442E-002,3.136906027793884E-002,-7.315309047698975E-001,-6.564593911170960E-001,-4.497510194778442E-002,3.136906027793884E-002,-7.315309047698975E-001,-6.564593911170960E-001,
7.987666666666666E+008,-4.103638604283333E-002,2.619973197579384E-002,-7.663887739181519E-001,-6.352854967117310E-001,-4.103638604283333E-002,2.619973197579384E-002,-7.663887739181519E-001,-6.352854967117310E-001,
8.071333333333334E+008,-3.912330046296120E-002,2.186053618788719E-002,-7.708760499954224E-001,-6.233031749725342E-001,-3.912330046296120E-002,2.186053618788719E-002,-7.708760499954224E-001,-6.233031749725342E-001,
8.155000000000000E+008,-4.580196738243103E-002,1.575258560478687E-002,-7.942264080047607E-001,-6.010419130325317E-001,-4.580196738243103E-002,1.575258560478687E-002,-7.942264080047607E-001,-6.010419130325317E-001,
8.238666666666666E+008,-5.055422335863113E-002,1.317758671939373E-002,-7.947506904602051E-001,-5.720766782760620E-001,-5.055422335863113E-002,1.317758671939373E-002,-7.947506904602051E-001,-5.720766782760620E-001,
8.322333333333334E+008,-5.874242633581162E-002,1.432521175593138E-002,-8.162769675254822E-001,-5.524958968162537E-001,-5.874242633581162E-002,1.432521175593138E-002,-8.162769675254822E-001,-5.524958968162537E-001,
8.406000000000000E+008,-6.527309119701386E-002,1.979660242795944E-002,-8.274391889572144E-001,-5.391411781311035E-001,-6.527309119701386E-002,1.979660242795944E-002,-8.274391889572144E-001,-5.391411781311035E-001,
8.489666666666668E+008,-7.002488523721695E-002,2.711776457726955E-002,-8.370739221572876E-001,-5.249198079109192E-001,-7.002488523721695E-002,2.711776457726955E-002,-8.370739221572876E-001,-5.249198079109192E-001,
8.573333333333334E+008,-6.839973479509354E-002,3.535267338156700E-002,-8.543857336044312E-001,-4.843140244483948E-001,-6.839973479509354E-002,3.535267338156700E-002,-8.543857336044312E-001,-4.843140244483948E-001,
8.657000000000000E+008,-6.179922819137573E-002,4.396403580904007E-002,-8.710997700691223E-001,-4.641879796981812E-001,-6.179922819137573E-002,4.396403580904007E-002,-8.710997700691223E-001,-4.641879796981812E-001,
8.740666666666668E+008,-5.447462946176529E-002,4.737108945846558E-002,-8.700588345527649E-001,-4.529462754726410E-001,-5.447462946176529E-002,4.737108945846558E-002,-8.700588345527649E-001,-4.529462754726410E-001,
8.824333333333334E+008,-4.521274566650391E-002,4.734260961413384E-002,-8.875345587730408E-001,-4.376235604286194E-001,-4.521274566650391E-002,4.734260961413384E-002,-8.875345587730408E-001,-4.376235604286194E-001,
8.908000000000000E+008,-3.704067319631577E-002,4.375810548663139E-002,-8.890606164932251E-001,-4.055110216140747E-001,-3.704067319631577E-002,4.375810548663139E-002,-8.890606164932251E-001,-4.055110216140747E-001,
8.991666666666668E+008,-3.407520428299904E-002,3.763988241553307E-002,-9.035879373550415E-001,-3.786389231681824E-001,-3.407520428299904E-002,3.763988241553307E-002,-9.035879373550415E-001,-3.786389231681824E-001,
9.075333333333334E+008,-3.557034209370613E-002,3.229617327451706E-002,-9.334189295768738E-001,-3.585311472415924E-001,-3.557034209370613E-002,3.229617327451706E-002,-9.334189295768738E-001,-3.585311472415924E-001,
9.159000000000000E+008,-3.959733247756958E-002,3.143597394227982E-002,-9.387873411178589E-001,-3.310352861881256E-001,-3.959733247756958E-002,3.143597394227982E-002,-9.387873411178589E-001,-3.310352861881256E-001,
9.242666666666668E+008,-4.551891237497330E-002,2.975875698029995E-002,-9.434136152267456E-001,-3.141920864582062E-001,-4.551891237497330E-002,2.975875698029995E-002,-9.434136152267456E-001,-3.141920864582062E-001,
9.326333333333334E+008,-5.400554463267326E-002,3.185112029314041E-002,-9.645899534225464E-001,-2.912704944610596E-001,-5.400554463267326E-002,3.185112029314041E-002,-9.645899534225464E-001,-2.912704944610596E-001,
9.410000000000000E+008,-5.826894938945770E-002,3.756291046738625E-002,-9.557075500488281E-001,-2.584458589553833E-001,-5.826894938945770E-002,3.756291046738625E-002,-9.557075500488281E-001,-2.584458589553833E-001,
9.493666666666668E+008,-6.027843058109283E-002,4.546986892819405E-002,-9.550130367279053E-001,-2.405214160680771E-001,-6.027843058109283E-002,4.546986892819405E-002,-9.550130367279053E-001,-2.405214160680771E-001,
9.577333333333334E+008,-5.805343762040138E-002,5.483340471982956E-002,-9.696992039680481E-001,-2.180900424718857E-001,-5.805343762040138E-002,5.483340471982956E-002,-9.696992039680481E-001,-2.180900424718857E-001,
9.661000000000000E+008,-5.087329819798470E-002,6.340397894382477E-002,-9.686069488525391E-001,-1.935379505157471E-001,-5.087329819798470E-002,6.340397894382477E-002,-9.686069488525391E-001,-1.935379505157471E-001,
9.744666666666668E+008,-4.226432368159294E-002,6.445989757776260E-002,-9.744466543197632E-001,-1.699100434780121E-001,-4.226432368159294E-002,6.445989757776260E-002,-9.744466543197632E-001,-1.699100434780121E-001,
9.828333333333334E+008,-2.970697171986103E-002,6.265793740749359E-002,-9.778941869735718E-001,-1.495090276002884E-001,-2.970697171986103E-002,6.265793740749359E-002,-9.778941869735718E-001,-1.495090276002884E-001,
9.912000000000000E+008,-2.325179427862167E-002,5.703517049551010E-002,-9.776129722595215E-001,-1.218178570270538E-001,-2.325179427862167E-002,5.703517049551010E-002,-9.776129722595215E-001,-1.218178570270538E-001,
9.995666666666668E+008,-1.711292192339897E-002,5.000716820359230E-002,-9.944833517074585E-001,-8.429278433322907E-002,-1.711292192339897E-002,5.000716820359230E-002,-9.944833517074585E-001,-8.429278433322907E-002,
1.007933333333333E+009,-1.846021227538586E-002,4.230252653360367E-002,-9.917761087417603E-001,-6.962487101554871E-002,-1.846021227538586E-002,4.230252653360367E-002,-9.917761087417603E-001,-6.962487101554871E-002,
1.016300000000000E+009,-2.493320591747761E-002,3.830626979470253E-002,-9.924754500389099E-001,-4.100523516535759E-002,-2.493320591747761E-002,3.830626979470253E-002,-9.924754500389099E-001,-4.100523516535759E-002,
1.024666666666667E+009,-3.311190381646156E-002,3.404215350747109E-002,-9.935261607170105E-001,-8.124910295009613E-003,-3.311190381646156E-002,3.404215350747109E-002,-9.935261607170105E-001,-8.124910295009613E-003,
1.033033333333333E+009,-4.022568836808205E-002,3.882056474685669E-002,-9.921771883964539E-001,9.772417135536671E-003,-4.022568836808205E-002,3.882056474685669E-002,-9.921771883964539E-001,9.772417135536671E-003,
1.041400000000000E+009,-4.646463319659233E-002,4.645444825291634E-002,-9.777326583862305E-001,4.860548302531242E-002,-4.646463319659233E-002,4.645444825291634E-002,-9.777326583862305E-001,4.860548302531242E-002,
1.049766666666667E+009,-4.762114584445953E-002,5.667291581630707E-002,-9.887072443962097E-001,6.690210849046707E-002,-4.762114584445953E-002,5.667291581630707E-002,-9.887072443962097E-001,6.690210849046707E-002,
1.058133333333333E+009,-4.235779866576195E-002,6.469079107046127E-002,-9.838975667953491E-001,8.524690568447113E-002,-4.235779866576195E-002,6.469079107046127E-002,-9.838975667953491E-001,8.524690568447113E-002,
1.066500000000000E+009,-3.212180733680725E-002,7.112294435501099E-002,-9.905843734741211E-001,1.230390146374703E-001,-3.212180733680725E-002,7.112294435501099E-002,-9.905843734741211E-001,1.230390146374703E-001,
1.074866666666667E+009,-2.151643857359886E-002,6.929548829793930E-002,-9.737113714218140E-001,1.409474313259125E-001,-2.151643857359886E-002,6.929548829793930E-002,-9.737113714218140E-001,1.409474313259125E-001,
1.083233333333334E+009,-1.055956818163395E-002,6.009490787982941E-002,-9.720119237899780E-001,1.627582013607025E-001,-1.055956818163395E-002,6.009490787982941E-002,-9.720119237899780E-001,1.627582013607025E-001,
1.091600000000000E+009,-5.042740143835545E-003,5.103454738855362E-002,-9.644768238067627E-001,1.856673806905747E-001,-5.042740143835545E-003,5.103454738855362E-002,-9.644768238067627E-001,1.856673806905747E-001,
1.099966666666667E+009,-4.797656554728746E-003,3.981994092464447E-002,-9.671996831893921E-001,2.246246784925461E-001,-4.797656554728746E-003,3.981994092464447E-002,-9.671996831893921E-001,2.246246784925461E-001,
1.108333333333334E+009,-1.424248889088631E-002,3.103897534310818E-002,-9.448637366294861E-001,2.284897714853287E-001,-1.424248889088631E-002,3.103897534310818E-002,-9.448637366294861E-001,2.284897714853287E-001,
1.116700000000000E+009,-2.563764527440071E-002,3.253033757209778E-002,-9.442963004112244E-001,2.752332687377930E-001,-2.563764527440071E-002,3.253033757209778E-002,-9.442963004112244E-001,2.752332687377930E-001,
1.125066666666667E+009,-3.944429010152817E-002,3.558906912803650E-002,-9.475966691970825E-001,2.851191759109497E-001,-3.944429010152817E-002,3.558906912803650E-002,-9.475966691970825E-001,2.851191759109497E-001,
1.133433333333334E+009,-4.800524562597275E-002,4.989089444279671E-002,-9.466638565063477E-001,3.086533546447754E-001,-4.800524562597275E-002,4.989089444279671E-002,-9.466638565063477E-001,3.086533546447754E-001,
1.141800000000000E+009,-4.835658520460129E-002,6.345245242118835E-002,-9.179029464721680E-001,3.291305303573608E-001,-4.835658520460129E-002,6.345245242118835E-002,-9.179029464721680E-001,3.291305303573608E-001,
1.150166666666667E+009,-4.198024794459343E-002,8.027147501707077E-002,-9.024455547332764E-001,3.584781289100647E-001,-4.198024794459343E-002,8.027147501707077E-002,-9.024455547332764E-001,3.584781289100647E-001,
1.158533333333334E+009,-2.763858996331692E-002,8.850633352994919E-002,-9.035736322402954E-001,3.821080029010773E-001,-2.763858996331692E-002,8.850633352994919E-002,-9.035736322402954E-001,3.821080029010773E-001,
1.166900000000000E+009,-8.954081684350967E-003,8.885602653026581E-002,-8.955886363983154E-001,4.136565923690796E-001,-8.954081684350967E-003,8.885602653026581E-002,-8.955886363983154E-001,4.136565923690796E-001,
1.175266666666667E+009,7.074342574924231E-003,7.776603102684021E-002,-8.864272236824036E-001,4.207531511783600E-001,7.074342574924231E-003,7.776603102684021E-002,-8.864272236824036E-001,4.207531511783600E-001,
1.183633333333334E+009,1.801798865199089E-002,6.301818042993546E-002,-8.763242363929749E-001,4.591360688209534E-001,1.801798865199089E-002,6.301818042993546E-002,-8.763242363929749E-001,4.591360688209534E-001,
1.192000000000000E+009,1.870948635041714E-002,4.354434087872505E-002,-8.665065169334412E-001,4.686890244483948E-001,1.870948635041714E-002,4.354434087872505E-002,-8.665065169334412E-001,4.686890244483948E-001,
1.200366666666667E+009,8.034612052142620E-003,2.963287569582462E-002,-8.570787310600281E-001,4.973992109298706E-001,8.034612052142620E-003,2.963287569582462E-002,-8.570787310600281E-001,4.973992109298706E-001,
1.208733333333334E+009,-7.546295877546072E-003,2.180968225002289E-002,-8.500203490257263E-001,5.161088705062866E-001,-7.546295877546072E-003,2.180968225002289E-002,-8.500203490257263E-001,5.161088705062866E-001,
1.217100000000000E+009,-2.483005076646805E-002,2.844750508666039E-002,-8.332433700561523E-001,5.356465578079224E-001,-2.483005076646805E-002,2.844750508666039E-002,-8.332433700561523E-001,5.356465578079224E-001,
1.225466666666667E+009,-3.425330296158791E-002,4.013605043292046E-002,-8.066342473030090E-001,5.630540251731873E-001,-3.425330296158791E-002,4.013605043292046E-002,-8.066342473030090E-001,5.630540251731873E-001,
1.233833333333334E+009,-4.057012498378754E-002,5.754975974559784E-002,-7.892304062843323E-001,5.800464153289795E-001,-4.057012498378754E-002,5.754975974559784E-002,-7.892304062843323E-001,5.800464153289795E-001,
1.242200000000000E+009,-3.639374673366547E-002,7.589688897132874E-002,-7.751891613006592E-001,5.903723835945129E-001,-3.639374673366547E-002,7.589688897132874E-002,-7.751891613006592E-001,5.903723835945129E-001,
1.250566666666667E+009,-2.086475305259228E-002,8.699236065149307E-002,-7.487241625785828E-001,6.173753738403320E-001,-2.086475305259228E-002,8.699236065149307E-002,-7.487241625785828E-001,6.173753738403320E-001,
1.258933333333334E+009,-1.513667055405676E-003,8.846348524093628E-002,-7.589071393013001E-001,6.371918916702271E-001,-1.513667055405676E-003,8.846348524093628E-002,-7.589071393013001E-001,6.371918916702271E-001,
1.267300000000000E+009,1.661876030266285E-002,7.816058397293091E-002,-7.403467893600464E-001,6.498898863792419E-001,1.661876030266285E-002,7.816058397293091E-002,-7.403467893600464E-001,6.498898863792419E-001,
1.275666666666667E+009,2.591581456363201E-002,5.972738191485405E-002,-7.082179784774780E-001,6.739376187324524E-001,2.591581456363201E-002,5.972738191485405E-002,-7.082179784774780E-001,6.739376187324524E-001,
1.284033333333334E+009,2.557501383125782E-002,3.893413767218590E-002,-7.007810473442078E-001,6.958428025245667E-001,2.557501383125782E-002,3.893413767218590E-002,-7.007810473442078E-001,6.958428025245667E-001,
1.292400000000000E+009,1.462765876203775E-002,2.257023006677628E-002,-6.873492002487183E-001,7.124713659286499E-001,1.462765876203775E-002,2.257023006677628E-002,-6.873492002487183E-001,7.124713659286499E-001,
1.300766666666667E+009,-3.876141970977187E-003,1.479536760598421E-002,-6.626836061477661E-001,7.298722863197327E-001,-3.876141970977187E-003,1.479536760598421E-002,-6.626836061477661E-001,7.298722863197327E-001,
1.309133333333334E+009,-2.329362183809280E-002,1.917615532875061E-002,-6.476876139640808E-001,7.459313869476318E-001,-2.329362183809280E-002,1.917615532875061E-002,-6.476876139640808E-001,7.459313869476318E-001,
1.317500000000000E+009,-3.644089773297310E-002,3.442103043198586E-002,-6.222311258316040E-001,7.603700757026672E-001,-3.644089773297310E-002,3.442103043198586E-002,-6.222311258316040E-001,7.603700757026672E-001,
1.325866666666667E+009,-3.968759626150131E-002,5.500228703022003E-002,-6.062588095664978E-001,7.735583186149597E-001,-3.968759626150131E-002,5.500228703022003E-002,-6.062588095664978E-001,7.735583186149597E-001,
1.334233333333334E+009,-3.191199153661728E-002,7.359474897384644E-002,-5.785677433013916E-001,7.921531200408936E-001,-3.191199153661728E-002,7.359474897384644E-002,-5.785677433013916E-001,7.921531200408936E-001,
1.342600000000000E+009,-1.698964461684227E-002,8.364713191986084E-002,-5.601733326911926E-001,8.090295791625977E-001,-1.698964461684227E-002,8.364713191986084E-002,-5.601733326911926E-001,8.090295791625977E-001,
1.350966666666667E+009,2.142987912520766E-003,8.337344229221344E-002,-5.322791934013367E-001,8.335784673690796E-001,2.142987912520766E-003,8.337344229221344E-002,-5.322791934013367E-001,8.335784673690796E-001,
1.359333333333334E+009,1.706553623080254E-002,7.308772206306458E-002,-5.205757021903992E-001,8.351373076438904E-001,1.706553623080254E-002,7.308772206306458E-002,-5.205757021903992E-001,8.351373076438904E-001,
1.367700000000000E+009,2.105390280485153E-002,5.200963839888573E-002,-5.041538476943970E-001,8.448666334152222E-001,2.105390280485153E-002,5.200963839888573E-002,-5.041538476943970E-001,8.448666334152222E-001,
1.376066666666667E+009,1.683191396296024E-002,3.419670090079308E-002,-4.873089492321014E-001,8.640529513359070E-001,1.683191396296024E-002,3.419670090079308E-002,-4.873089492321014E-001,8.640529513359070E-001,
1.384433333333334E+009,3.964378556702286E-004,1.845949329435825E-002,-4.609767198562622E-001,8.875138163566589E-001,3.964378556702286E-004,1.845949329435825E-002,-4.609767198562622E-001,8.875138163566589E-001,
1.392800000000000E+009,-2.041454426944256E-002,1.701305992901325E-002,-4.444157481193543E-001,8.827220797538757E-001,-2.041454426944256E-002,1.701305992901325E-002,-4.444157481193543E-001,8.827220797538757E-001,
1.401166666666667E+009,-3.967810794711113E-002,2.831760048866272E-002,-4.185605943202972E-001,9.014373421669006E-001,-3.967810794711113E-002,2.831760048866272E-002,-4.185605943202972E-001,9.014373421669006E-001,
1.409533333333334E+009,-5.087445303797722E-002,4.533199593424797E-002,-3.856863975524902E-001,9.093722701072693E-001,-5.087445303797722E-002,4.533199593424797E-002,-3.856863975524902E-001,9.093722701072693E-001,
1.417900000000000E+009,-5.039980262517929E-002,7.129491865634918E-002,-3.719049096107483E-001,9.014732837677002E-001,-5.039980262517929E-002,7.129491865634918E-002,-3.719049096107483E-001,9.014732837677002E-001,
1.426266666666667E+009,-3.620361536741257E-002,8.995056152343750E-002,-3.385306298732758E-001,9.249004721641541E-001,-3.620361536741257E-002,8.995056152343750E-002,-3.385306298732758E-001,9.249004721641541E-001,
1.434633333333334E+009,-1.681666262447834E-002,1.015037447214127E-001,-3.089026510715485E-001,9.314858913421631E-001,-1.681666262447834E-002,1.015037447214127E-001,-3.089026510715485E-001,9.314858913421631E-001,
1.443000000000000E+009,5.239260848611593E-003,1.010149866342545E-001,-2.945938408374786E-001,9.363191723823547E-001,5.239260848611593E-003,1.010149866342545E-001,-2.945938408374786E-001,9.363191723823547E-001,
1.451366666666667E+009,2.156380191445351E-002,8.900479227304459E-002,-2.666957080364227E-001,9.401389956474304E-001,2.156380191445351E-002,8.900479227304459E-002,-2.666957080364227E-001,9.401389956474304E-001,
1.459733333333334E+009,3.029500506818295E-002,6.832502037286758E-002,-2.476969957351685E-001,9.471235871315002E-001,3.029500506818295E-002,6.832502037286758E-002,-2.476969957351685E-001,9.471235871315002E-001,
