% Version 1.00
%
%freq[Hz],re:Trc1_S11,im:Trc1_S11,re:Trc2_S21,im:Trc2_S21,re:Trc3_S11,im:Trc3_S11,re:Trc4_S21,im:Trc4_S21,
6.900000000000000E+008,-2.570801600813866E-002,5.067591741681099E-002,-4.941314756870270E-001,-8.529060482978821E-001,-2.570801600813866E-002,5.067591741681099E-002,-4.941314756870270E-001,-8.529060482978821E-001,
6.983666666666666E+008,-1.555857528001070E-002,5.164632573723793E-002,-5.168883204460144E-001,-8.444136381149292E-001,-1.555857528001070E-002,5.164632573723793E-002,-5.168883204460144E-001,-8.444136381149292E-001,
7.067333333333334E+008,-8.457954972982407E-003,4.666408523917198E-002,-5.624226927757263E-001,-7.827541232109070E-001,-8.457954972982407E-003,4.666408523917198E-002,-5.624226927757263E-001,-7.827541232109070E-001,
7.151000000000000E+008,-7.008040323853493E-003,3.910224139690399E-002,-5.817956924438477E-001,-7.967154383659363E-001,-7.008040323853493E-003,3.910224139690399E-002,-5.817956924438477E-001,-7.967154383659363E-001,
7.234666666666666E+008,-9.531979449093342E-003,3.376023098826408E-002,-5.942682027816773E-001,-7.848757505416870E-001,-9.531979449093342E-003,3.376023098826408E-002,-5.942682027816773E-001,-7.848757505416870E-001,
7.318333333333334E+008,-1.572217792272568E-002,3.150308877229691E-002,-6.083391904830933E-001,-7.839965820312500E-001,-1.572217792272568E-002,3.150308877229691E-002,-6.083391904830933E-001,-7.839965820312500E-001,
7.402000000000000E+008,-2.162953838706017E-002,3.185306116938591E-002,-6.536977887153626E-001,-7.652166485786438E-001,-2.162953838706017E-002,3.185306116938591E-002,-6.536977887153626E-001,-7.652166485786438E-001,
7.485666666666666E+008,-2.779403328895569E-002,3.796438127756119E-002,-6.516624689102173E-001,-7.622507214546204E-001,-2.779403328895569E-002,3.796438127756119E-002,-6.516624689102173E-001,-7.622507214546204E-001,
7.569333333333334E+008,-2.841508574783802E-002,4.575775563716888E-002,-6.604665517807007E-001,-7.411952614784241E-001,-2.841508574783802E-002,4.575775563716888E-002,-6.604665517807007E-001,-7.411952614784241E-001,
7.653000000000000E+008,-2.279894798994064E-002,5.336850509047508E-002,-6.791191697120667E-001,-7.211099863052368E-001,-2.279894798994064E-002,5.336850509047508E-002,-6.791191697120667E-001,-7.211099863052368E-001,
7.736666666666666E+008,-1.526208221912384E-002,5.957907438278198E-002,-7.108514904975891E-001,-6.956048011779785E-001,-1.526208221912384E-002,5.957907438278198E-002,-7.108514904975891E-001,-6.956048011779785E-001,
7.820333333333334E+008,-5.347594153136015E-003,6.224251911044121E-002,-7.227095961570740E-001,-6.834243535995483E-001,-5.347594153136015E-003,6.224251911044121E-002,-7.227095961570740E-001,-6.834243535995483E-001,
7.904000000000000E+008,5.894689355045557E-003,6.104877218604088E-002,-7.273113131523132E-001,-6.623426079750061E-001,5.894689355045557E-003,6.104877218604088E-002,-7.273113131523132E-001,-6.623426079750061E-001,
7.987666666666666E+008,1.133696082979441E-002,5.538432300090790E-002,-7.616520524024963E-001,-6.409785151481628E-001,1.133696082979441E-002,5.538432300090790E-002,-7.616520524024963E-001,-6.409785151481628E-001,
8.071333333333334E+008,1.502015721052885E-002,5.004634708166122E-002,-7.667785882949829E-001,-6.302685141563416E-001,1.502015721052885E-002,5.004634708166122E-002,-7.667785882949829E-001,-6.302685141563416E-001,
8.155000000000000E+008,1.007863320410252E-002,4.376106709241867E-002,-7.902739644050598E-001,-6.088184118270874E-001,1.007863320410252E-002,4.376106709241867E-002,-7.902739644050598E-001,-6.088184118270874E-001,
8.238666666666666E+008,6.958015728741884E-003,3.931474313139916E-002,-7.915934324264526E-001,-5.793419480323792E-001,6.958015728741884E-003,3.931474313139916E-002,-7.915934324264526E-001,-5.793419480323792E-001,
8.322333333333334E+008,3.208302950952202E-004,3.965147212147713E-002,-8.139050602912903E-001,-5.602687597274780E-001,3.208302950952202E-004,3.965147212147713E-002,-8.139050602912903E-001,-5.602687597274780E-001,
8.406000000000000E+008,-4.720321856439114E-003,4.327914118766785E-002,-8.245645761489868E-001,-5.478926897048950E-001,-4.720321856439114E-003,4.327914118766785E-002,-8.245645761489868E-001,-5.478926897048950E-001,
8.489666666666668E+008,-7.631903979927301E-003,5.032945051789284E-002,-8.358016014099121E-001,-5.322024226188660E-001,-7.631903979927301E-003,5.032945051789284E-002,-8.358016014099121E-001,-5.322024226188660E-001,
8.573333333333334E+008,-5.135531071573496E-003,5.781464651226997E-002,-8.531318306922913E-001,-4.910620152950287E-001,-5.135531071573496E-003,5.781464651226997E-002,-8.531318306922913E-001,-4.910620152950287E-001,
8.657000000000000E+008,4.228827077895403E-003,6.433895230293274E-002,-8.697811961174011E-001,-4.718593358993530E-001,4.228827077895403E-003,6.433895230293274E-002,-8.697811961174011E-001,-4.718593358993530E-001,
8.740666666666668E+008,1.273635961115360E-002,6.672922521829605E-002,-8.679882884025574E-001,-4.591171741485596E-001,1.273635961115360E-002,6.672922521829605E-002,-8.679882884025574E-001,-4.591171741485596E-001,
8.824333333333334E+008,2.346569299697876E-002,6.579666584730148E-002,-8.850033283233643E-001,-4.441903531551361E-001,2.346569299697876E-002,6.579666584730148E-002,-8.850033283233643E-001,-4.441903531551361E-001,
8.908000000000000E+008,3.316041082143784E-002,6.065810099244118E-002,-8.855907320976257E-001,-4.125617444515228E-001,3.316041082143784E-002,6.065810099244118E-002,-8.855907320976257E-001,-4.125617444515228E-001,
8.991666666666668E+008,3.743975237011910E-002,5.356669053435326E-002,-9.010534286499023E-001,-3.851266205310822E-001,3.743975237011910E-002,5.356669053435326E-002,-9.010534286499023E-001,-3.851266205310822E-001,
9.075333333333334E+008,3.851888328790665E-002,4.638795554637909E-002,-9.304859638214111E-001,-3.664555549621582E-001,3.851888328790665E-002,4.638795554637909E-002,-9.304859638214111E-001,-3.664555549621582E-001,
9.159000000000000E+008,3.618045523762703E-002,4.320644587278366E-002,-9.368222355842590E-001,-3.377539515495300E-001,3.618045523762703E-002,4.320644587278366E-002,-9.368222355842590E-001,-3.377539515495300E-001,
9.242666666666668E+008,3.141450509428978E-002,3.943966701626778E-002,-9.419648647308350E-001,-3.241481781005859E-001,3.141450509428978E-002,3.943966701626778E-002,-9.419648647308350E-001,-3.241481781005859E-001,
9.326333333333334E+008,2.425285801291466E-002,3.981442004442215E-002,-9.634501934051514E-001,-3.001928031444550E-001,2.425285801291466E-002,3.981442004442215E-002,-9.634501934051514E-001,-3.001928031444550E-001,
9.410000000000000E+008,2.095105126500130E-002,4.384599998593330E-002,-9.571043848991394E-001,-2.667543590068817E-001,2.095105126500130E-002,4.384599998593330E-002,-9.571043848991394E-001,-2.667543590068817E-001,
9.493666666666668E+008,2.042066864669323E-002,4.956300556659699E-002,-9.548338651657105E-001,-2.486037909984589E-001,2.042066864669323E-002,4.956300556659699E-002,-9.548338651657105E-001,-2.486037909984589E-001,
9.577333333333334E+008,2.356031723320484E-002,5.743872374296188E-002,-9.711036086082459E-001,-2.246155142784119E-001,2.356031723320484E-002,5.743872374296188E-002,-9.711036086082459E-001,-2.246155142784119E-001,
9.661000000000000E+008,3.295935690402985E-002,6.340948492288590E-002,-9.691026210784912E-001,-2.003816515207291E-001,3.295935690402985E-002,6.340948492288590E-002,-9.691026210784912E-001,-2.003816515207291E-001,
9.744666666666668E+008,4.150354862213135E-002,6.291072070598602E-002,-9.739330410957336E-001,-1.766016781330109E-001,4.150354862213135E-002,6.291072070598602E-002,-9.739330410957336E-001,-1.766016781330109E-001,
9.828333333333334E+008,5.553834512829781E-002,5.921532958745956E-002,-9.767449498176575E-001,-1.560725867748261E-001,5.553834512829781E-002,5.921532958745956E-002,-9.767449498176575E-001,-1.560725867748261E-001,
9.912000000000000E+008,6.373998522758484E-002,5.207537114620209E-002,-9.768704175949097E-001,-1.289548426866531E-001,6.373998522758484E-002,5.207537114620209E-002,-9.768704175949097E-001,-1.289548426866531E-001,
9.995666666666668E+008,7.021469622850418E-002,4.219115898013115E-002,-9.929811954498291E-001,-9.141421318054199E-002,7.021469622850418E-002,4.219115898013115E-002,-9.929811954498291E-001,-9.141421318054199E-002,
1.007933333333333E+009,7.049809396266937E-002,3.217985481023789E-002,-9.904861450195313E-001,-7.682318240404129E-002,7.049809396266937E-002,3.217985481023789E-002,-9.904861450195313E-001,-7.682318240404129E-002,
1.016300000000000E+009,6.492547690868378E-002,2.551280148327351E-002,-9.934142231941223E-001,-5.022665113210678E-002,6.492547690868378E-002,2.551280148327351E-002,-9.934142231941223E-001,-5.022665113210678E-002,
1.024666666666667E+009,5.780218914151192E-002,1.877091825008392E-002,-9.928888082504273E-001,-1.822972297668457E-002,5.780218914151192E-002,1.877091825008392E-002,-9.928888082504273E-001,-1.822972297668457E-002,
1.033033333333333E+009,5.096082016825676E-002,2.080352045595646E-002,-9.925368428230286E-001,1.034106127917767E-003,5.096082016825676E-002,2.080352045595646E-002,-9.925368428230286E-001,1.034106127917767E-003,
1.041400000000000E+009,4.496191069483757E-002,2.595561183989048E-002,-9.785709381103516E-001,3.930829465389252E-002,4.496191069483757E-002,2.595561183989048E-002,-9.785709381103516E-001,3.930829465389252E-002,
1.049766666666667E+009,4.446622356772423E-002,3.328669443726540E-002,-9.910384416580200E-001,5.864828824996948E-002,4.446622356772423E-002,3.328669443726540E-002,-9.910384416580200E-001,5.864828824996948E-002,
1.058133333333333E+009,5.019491910934448E-002,3.899410367012024E-002,-9.854894280433655E-001,7.755087316036224E-002,5.019491910934448E-002,3.899410367012024E-002,-9.854894280433655E-001,7.755087316036224E-002,
1.066500000000000E+009,6.155417487025261E-002,4.176484793424606E-002,-9.924598932266235E-001,1.160435378551483E-001,6.155417487025261E-002,4.176484793424606E-002,-9.924598932266235E-001,1.160435378551483E-001,
1.074866666666667E+009,7.220631092786789E-002,3.901020810008049E-002,-9.745820760726929E-001,1.340593993663788E-001,7.220631092786789E-002,3.901020810008049E-002,-9.745820760726929E-001,1.340593993663788E-001,
1.083233333333334E+009,8.348645269870758E-002,2.675723098218441E-002,-9.718869924545288E-001,1.547677367925644E-001,8.348645269870758E-002,2.675723098218441E-002,-9.718869924545288E-001,1.547677367925644E-001,
1.091600000000000E+009,9.009399265050888E-002,1.557432767003775E-002,-9.640564322471619E-001,1.767010241746903E-001,9.009399265050888E-002,1.557432767003775E-002,-9.640564322471619E-001,1.767010241746903E-001,
1.099966666666667E+009,9.152135998010635E-002,2.440125972498208E-004,-9.677566885948181E-001,2.149288058280945E-001,9.152135998010635E-002,2.440125972498208E-004,-9.677566885948181E-001,2.149288058280945E-001,
1.108333333333334E+009,8.260595053434372E-002,-1.117288973182440E-002,-9.459108710289002E-001,2.184500247240067E-001,8.260595053434372E-002,-1.117288973182440E-002,-9.459108710289002E-001,2.184500247240067E-001,
1.116700000000000E+009,6.876227259635925E-002,-1.260714512318373E-002,-9.452861547470093E-001,2.630506455898285E-001,6.876227259635925E-002,-1.260714512318373E-002,-9.452861547470093E-001,2.630506455898285E-001,
1.125066666666667E+009,5.639314651489258E-002,-1.276639103889465E-002,-9.509543180465698E-001,2.729325592517853E-001,5.639314651489258E-002,-1.276639103889465E-002,-9.509543180465698E-001,2.729325592517853E-001,
1.133433333333334E+009,4.691866412758827E-002,-1.674296217970550E-003,-9.513860344886780E-001,2.981750667095184E-001,4.691866412758827E-002,-1.674296217970550E-003,-9.513860344886780E-001,2.981750667095184E-001,
1.141800000000000E+009,4.561929404735565E-002,9.033452719449997E-003,-9.240053892135620E-001,3.193121850490570E-001,4.561929404735565E-002,9.033452719449997E-003,-9.240053892135620E-001,3.193121850490570E-001,
1.150166666666667E+009,5.185171216726303E-002,2.257812581956387E-002,-9.068659543991089E-001,3.510102629661560E-001,5.185171216726303E-002,2.257812581956387E-002,-9.068659543991089E-001,3.510102629661560E-001,
1.158533333333334E+009,6.574014574289322E-002,2.858337573707104E-002,-9.090705513954163E-001,3.756477236747742E-001,6.574014574289322E-002,2.858337573707104E-002,-9.090705513954163E-001,3.756477236747742E-001,
1.166900000000000E+009,8.477872610092163E-002,2.578379027545452E-002,-8.991219401359558E-001,4.092798531055450E-001,8.477872610092163E-002,2.578379027545452E-002,-8.991219401359558E-001,4.092798531055450E-001,
1.175266666666667E+009,9.927666187286377E-002,1.218469440937042E-002,-8.880408406257629E-001,4.139988422393799E-001,9.927666187286377E-002,1.218469440937042E-002,-8.880408406257629E-001,4.139988422393799E-001,
1.183633333333334E+009,1.103228479623795E-001,-5.806823726743460E-003,-8.766877651214600E-001,4.519039988517761E-001,1.103228479623795E-001,-5.806823726743460E-003,-8.766877651214600E-001,4.519039988517761E-001,
1.192000000000000E+009,1.106459349393845E-001,-2.810969017446041E-002,-8.666220307350159E-001,4.586361944675446E-001,1.106459349393845E-001,-2.810969017446041E-002,-8.666220307350159E-001,4.586361944675446E-001,
1.200366666666667E+009,9.942529350519180E-002,-4.484129697084427E-002,-8.579328060150147E-001,4.859158694744110E-001,9.942529350519180E-002,-4.484129697084427E-002,-8.579328060150147E-001,4.859158694744110E-001,
1.208733333333334E+009,8.350215852260590E-002,-5.556204169988632E-002,-8.522746562957764E-001,5.025998353958130E-001,8.350215852260590E-002,-5.556204169988632E-002,-8.522746562957764E-001,5.025998353958130E-001,
1.217100000000000E+009,6.472841650247574E-002,-5.339422821998596E-002,-8.381929397583008E-001,5.236610174179077E-001,6.472841650247574E-002,-5.339422821998596E-002,-8.381929397583008E-001,5.236610174179077E-001,
1.225466666666667E+009,5.259289219975472E-002,-4.606372490525246E-002,-8.138510584831238E-001,5.505338907241821E-001,5.259289219975472E-002,-4.606372490525246E-002,-8.138510584831238E-001,5.505338907241821E-001,
1.233833333333334E+009,4.510001093149185E-002,-3.026900440454483E-002,-7.978916764259338E-001,5.693906545639038E-001,4.510001093149185E-002,-3.026900440454483E-002,-7.978916764259338E-001,5.693906545639038E-001,
1.242200000000000E+009,4.818474128842354E-002,-1.466880645602942E-002,-7.832799553871155E-001,5.836599469184876E-001,4.818474128842354E-002,-1.466880645602942E-002,-7.832799553871155E-001,5.836599469184876E-001,
1.250566666666667E+009,6.235098466277123E-002,-6.559659261256456E-003,-7.570401430130005E-001,6.116517782211304E-001,6.235098466277123E-002,-6.559659261256456E-003,-7.570401430130005E-001,6.116517782211304E-001,
1.258933333333334E+009,7.914002984762192E-002,-7.852422073483467E-003,-7.657504081726074E-001,6.320163607597351E-001,7.914002984762192E-002,-7.852422073483467E-003,-7.657504081726074E-001,6.320163607597351E-001,
1.267300000000000E+009,9.548544138669968E-002,-2.141035161912441E-002,-7.442059516906738E-001,6.439530253410339E-001,9.548544138669968E-002,-2.141035161912441E-002,-7.442059516906738E-001,6.439530253410339E-001,
1.275666666666667E+009,1.045854091644287E-001,-4.183959960937500E-002,-7.105126380920410E-001,6.667882800102234E-001,1.045854091644287E-001,-4.183959960937500E-002,-7.105126380920410E-001,6.667882800102234E-001,
1.284033333333334E+009,1.023323163390160E-001,-6.579881161451340E-002,-7.028396725654602E-001,6.854459643363953E-001,1.023323163390160E-001,-6.579881161451340E-002,-7.028396725654602E-001,6.854459643363953E-001,
1.292400000000000E+009,8.982754498720169E-002,-8.575340360403061E-002,-6.918219327926636E-001,7.006314992904663E-001,8.982754498720169E-002,-8.575340360403061E-002,-6.918219327926636E-001,7.006314992904663E-001,
1.300766666666667E+009,7.019351422786713E-002,-9.517387300729752E-002,-6.685089468955994E-001,7.154206037521362E-001,7.019351422786713E-002,-9.517387300729752E-002,-6.685089468955994E-001,7.154206037521362E-001,
1.309133333333334E+009,4.712747037410736E-002,-9.466284513473511E-002,-6.587986350059509E-001,7.324633002281189E-001,4.712747037410736E-002,-9.466284513473511E-002,-6.587986350059509E-001,7.324633002281189E-001,
1.317500000000000E+009,3.280133008956909E-002,-8.410523831844330E-002,-6.337039470672607E-001,7.476575970649719E-001,3.280133008956909E-002,-8.410523831844330E-002,-6.337039470672607E-001,7.476575970649719E-001,
1.325866666666667E+009,2.552487328648567E-002,-6.546535342931747E-002,-6.195318698883057E-001,7.627739310264587E-001,2.552487328648567E-002,-6.546535342931747E-002,-6.195318698883057E-001,7.627739310264587E-001,
1.334233333333334E+009,3.037790581583977E-002,-4.914088174700737E-002,-5.910249948501587E-001,7.843872904777527E-001,3.037790581583977E-002,-4.914088174700737E-002,-5.910249948501587E-001,7.843872904777527E-001,
1.342600000000000E+009,4.243815317749977E-002,-4.146990180015564E-002,-5.721148252487183E-001,8.037931919097900E-001,4.243815317749977E-002,-4.146990180015564E-002,-5.721148252487183E-001,8.037931919097900E-001,
1.350966666666667E+009,5.868824943900108E-002,-4.424531385302544E-002,-5.403309464454651E-001,8.279166817665100E-001,5.868824943900108E-002,-4.424531385302544E-002,-5.403309464454651E-001,8.279166817665100E-001,
1.359333333333334E+009,7.299208641052246E-002,-5.732946470379829E-002,-5.292137861251831E-001,8.293865323066711E-001,7.299208641052246E-002,-5.732946470379829E-002,-5.292137861251831E-001,8.293865323066711E-001,
1.367700000000000E+009,7.347691059112549E-002,-7.958696037530899E-002,-5.112816095352173E-001,8.368291258811951E-001,7.347691059112549E-002,-7.958696037530899E-002,-5.112816095352173E-001,8.368291258811951E-001,
1.376066666666667E+009,6.657690554857254E-002,-9.991934150457382E-002,-4.953047931194305E-001,8.524909019470215E-001,6.657690554857254E-002,-9.991934150457382E-002,-4.953047931194305E-001,8.524909019470215E-001,
1.384433333333334E+009,4.769362136721611E-002,-1.182728409767151E-001,-4.706877768039703E-001,8.735772371292114E-001,4.769362136721611E-002,-1.182728409767151E-001,-4.706877768039703E-001,8.735772371292114E-001,
1.392800000000000E+009,2.417269907891750E-002,-1.226223707199097E-001,-4.575640559196472E-001,8.672922253608704E-001,2.417269907891750E-002,-1.226223707199097E-001,-4.575640559196472E-001,8.672922253608704E-001,
1.401166666666667E+009,2.159955212846398E-003,-1.151386424899101E-001,-4.345000088214874E-001,8.864384889602661E-001,2.159955212846398E-003,-1.151386424899101E-001,-4.345000088214874E-001,8.864384889602661E-001,
1.409533333333334E+009,-1.333389058709145E-002,-9.894181042909622E-002,-4.047476351261139E-001,8.988186120986939E-001,-1.333389058709145E-002,-9.894181042909622E-002,-4.047476351261139E-001,8.988186120986939E-001,
1.417900000000000E+009,-1.714480109512806E-002,-7.499131560325623E-002,-3.922888636589050E-001,8.945540189743042E-001,-1.714480109512806E-002,-7.499131560325623E-002,-3.922888636589050E-001,8.945540189743042E-001,
1.426266666666667E+009,-7.989050820469856E-003,-5.841749906539917E-002,-3.597638309001923E-001,9.202492237091065E-001,-7.989050820469856E-003,-5.841749906539917E-002,-3.597638309001923E-001,9.202492237091065E-001,
1.434633333333334E+009,8.762690238654614E-003,-4.774980992078781E-002,-3.262951672077179E-001,9.301468133926392E-001,8.762690238654614E-003,-4.774980992078781E-002,-3.262951672077179E-001,9.301468133926392E-001,
1.443000000000000E+009,2.652043104171753E-002,-4.967009276151657E-002,-3.086228072643280E-001,9.354625940322876E-001,2.652043104171753E-002,-4.967009276151657E-002,-3.086228072643280E-001,9.354625940322876E-001,
1.451366666666667E+009,4.034631699323654E-002,-6.239883974194527E-002,-2.761963903903961E-001,9.380745887756348E-001,4.034631699323654E-002,-6.239883974194527E-002,-2.761963903903961E-001,9.380745887756348E-001,
1.459733333333334E+009,4.528365284204483E-002,-8.561468869447708E-002,-2.591421902179718E-001,9.409973025321960E-001,4.528365284204483E-002,-8.561468869447708E-002,-2.591421902179718E-001,9.409973025321960E-001,
