% Version 1.00
%
%freq[Hz],re:Trc1_S11,im:Trc1_S11,re:Trc2_S21,im:Trc2_S21,re:Trc3_S11,im:Trc3_S11,re:Trc4_S21,im:Trc4_S21,
6.900000000000000E+008,-4.889218881726265E-002,1.302327588200569E-002,-4.958039224147797E-001,-8.529229760169983E-001,-4.889218881726265E-002,1.302327588200569E-002,-4.958039224147797E-001,-8.529229760169983E-001,
6.983666666666666E+008,-4.021343216300011E-002,1.333726849406958E-002,-5.172359943389893E-001,-8.444002270698547E-001,-4.021343216300011E-002,1.333726849406958E-002,-5.172359943389893E-001,-8.444002270698547E-001,
7.067333333333334E+008,-3.418432548642159E-002,7.904089987277985E-003,-5.630608201026917E-001,-7.833100557327271E-001,-3.418432548642159E-002,7.904089987277985E-003,-5.630608201026917E-001,-7.833100557327271E-001,
7.151000000000000E+008,-3.467218205332756E-002,3.645695978775621E-004,-5.814517140388489E-001,-7.969890832901001E-001,-3.467218205332756E-002,3.645695978775621E-004,-5.814517140388489E-001,-7.969890832901001E-001,
7.234666666666666E+008,-3.861084580421448E-002,-4.721188917756081E-003,-5.944645404815674E-001,-7.834255099296570E-001,-3.861084580421448E-002,-4.721188917756081E-003,-5.944645404815674E-001,-7.834255099296570E-001,
7.318333333333334E+008,-4.678213968873024E-002,-7.174950558692217E-003,-6.095731854438782E-001,-7.839520573616028E-001,-4.678213968873024E-002,-7.174950558692217E-003,-6.095731854438782E-001,-7.839520573616028E-001,
7.402000000000000E+008,-5.396255478262901E-002,-6.604628171771765E-003,-6.526203751564026E-001,-7.650578618049622E-001,-5.396255478262901E-002,-6.604628171771765E-003,-6.526203751564026E-001,-7.650578618049622E-001,
7.485666666666666E+008,-6.198093295097351E-002,-2.988120832014829E-004,-6.521309018135071E-001,-7.618566751480103E-001,-6.198093295097351E-002,-2.988120832014829E-004,-6.521309018135071E-001,-7.618566751480103E-001,
7.569333333333334E+008,-6.459974497556686E-002,7.645039353519678E-003,-6.594336628913879E-001,-7.396004796028137E-001,-6.459974497556686E-002,7.645039353519678E-003,-6.594336628913879E-001,-7.396004796028137E-001,
7.653000000000000E+008,-6.102317944169045E-002,1.560825202614069E-002,-6.767419576644898E-001,-7.227275371551514E-001,-6.102317944169045E-002,1.560825202614069E-002,-6.767419576644898E-001,-7.227275371551514E-001,
7.736666666666666E+008,-5.469729751348496E-002,2.165220119059086E-002,-7.100465893745422E-001,-6.969674825668335E-001,-5.469729751348496E-002,2.165220119059086E-002,-7.100465893745422E-001,-6.969674825668335E-001,
7.820333333333334E+008,-4.658612236380577E-002,2.470414154231548E-002,-7.227228283882141E-001,-6.827261447906494E-001,-4.658612236380577E-002,2.470414154231548E-002,-7.227228283882141E-001,-6.827261447906494E-001,
7.904000000000000E+008,-3.740137070417404E-002,2.387182787060738E-002,-7.295915484428406E-001,-6.632876992225647E-001,-3.740137070417404E-002,2.387182787060738E-002,-7.295915484428406E-001,-6.632876992225647E-001,
7.987666666666666E+008,-3.380693122744560E-002,1.853003352880478E-002,-7.629892826080322E-001,-6.451846361160278E-001,-3.380693122744560E-002,1.853003352880478E-002,-7.629892826080322E-001,-6.451846361160278E-001,
8.071333333333334E+008,-3.174435719847679E-002,1.360198389738798E-002,-7.656658887863159E-001,-6.309723258018494E-001,-3.174435719847679E-002,1.360198389738798E-002,-7.656658887863159E-001,-6.309723258018494E-001,
8.155000000000000E+008,-3.834273293614388E-002,7.230406161397696E-003,-7.905819416046143E-001,-6.078159809112549E-001,-3.834273293614388E-002,7.230406161397696E-003,-7.905819416046143E-001,-6.078159809112549E-001,
8.238666666666666E+008,-4.326788708567619E-002,4.199069924652576E-003,-7.908015847206116E-001,-5.782516598701477E-001,-4.326788708567619E-002,4.199069924652576E-003,-7.908015847206116E-001,-5.782516598701477E-001,
8.322333333333334E+008,-5.137691646814346E-002,4.861680790781975E-003,-8.116981983184815E-001,-5.583968162536621E-001,-5.137691646814346E-002,4.861680790781975E-003,-8.116981983184815E-001,-5.583968162536621E-001,
8.406000000000000E+008,-5.836620926856995E-002,9.719197638332844E-003,-8.217464685440064E-001,-5.477555394172669E-001,-5.836620926856995E-002,9.719197638332844E-003,-8.217464685440064E-001,-5.477555394172669E-001,
8.489666666666668E+008,-6.312704086303711E-002,1.720023341476917E-002,-8.345322608947754E-001,-5.318394899368286E-001,-6.312704086303711E-002,1.720023341476917E-002,-8.345322608947754E-001,-5.318394899368286E-001,
8.573333333333334E+008,-6.190162524580956E-002,2.509776130318642E-002,-8.505251407623291E-001,-4.922623336315155E-001,-6.190162524580956E-002,2.509776130318642E-002,-8.505251407623291E-001,-4.922623336315155E-001,
8.657000000000000E+008,-5.581301823258400E-002,3.328176960349083E-002,-8.689358830451965E-001,-4.720930755138397E-001,-5.581301823258400E-002,3.328176960349083E-002,-8.689358830451965E-001,-4.720930755138397E-001,
8.740666666666668E+008,-4.864447191357613E-002,3.656725585460663E-002,-8.675032258033752E-001,-4.609908461570740E-001,-4.864447191357613E-002,3.656725585460663E-002,-8.675032258033752E-001,-4.609908461570740E-001,
8.824333333333334E+008,-3.948118537664414E-002,3.657331317663193E-002,-8.855271935462952E-001,-4.457149803638458E-001,-3.948118537664414E-002,3.657331317663193E-002,-8.855271935462952E-001,-4.457149803638458E-001,
8.908000000000000E+008,-3.153581544756889E-002,3.276609629392624E-002,-8.860775232315064E-001,-4.132240116596222E-001,-3.153581544756889E-002,3.276609629392624E-002,-8.860775232315064E-001,-4.132240116596222E-001,
8.991666666666668E+008,-2.875573746860027E-002,2.634549140930176E-002,-9.008862376213074E-001,-3.862459361553192E-001,-2.875573746860027E-002,2.634549140930176E-002,-9.008862376213074E-001,-3.862459361553192E-001,
9.075333333333334E+008,-3.006450831890106E-002,2.050687372684479E-002,-9.311726093292236E-001,-3.661626875400543E-001,-3.006450831890106E-002,2.050687372684479E-002,-9.311726093292236E-001,-3.661626875400543E-001,
9.159000000000000E+008,-3.426225483417511E-002,1.892645470798016E-002,-9.371350407600403E-001,-3.382615447044373E-001,-3.426225483417511E-002,1.892645470798016E-002,-9.371350407600403E-001,-3.382615447044373E-001,
9.242666666666668E+008,-4.051352664828301E-002,1.686009764671326E-002,-9.418338537216187E-001,-3.221533596515656E-001,-4.051352664828301E-002,1.686009764671326E-002,-9.418338537216187E-001,-3.221533596515656E-001,
9.326333333333334E+008,-4.905002936720848E-002,1.849475875496864E-002,-9.617582559585571E-001,-3.008603453636169E-001,-4.905002936720848E-002,1.849475875496864E-002,-9.617582559585571E-001,-3.008603453636169E-001,
9.410000000000000E+008,-5.380455777049065E-002,2.397528663277626E-002,-9.559553861618042E-001,-2.664478123188019E-001,-5.380455777049065E-002,2.397528663277626E-002,-9.559553861618042E-001,-2.664478123188019E-001,
9.493666666666668E+008,-5.615176260471344E-002,3.165719658136368E-002,-9.530773758888245E-001,-2.502420544624329E-001,-5.615176260471344E-002,3.165719658136368E-002,-9.530773758888245E-001,-2.502420544624329E-001,
9.577333333333334E+008,-5.459544062614441E-002,4.095120728015900E-002,-9.691802263259888E-001,-2.267062067985535E-001,-5.459544062614441E-002,4.095120728015900E-002,-9.691802263259888E-001,-2.267062067985535E-001,
9.661000000000000E+008,-4.793885350227356E-002,4.923501610755920E-002,-9.676277041435242E-001,-2.019701451063156E-001,-4.793885350227356E-002,4.923501610755920E-002,-9.676277041435242E-001,-2.019701451063156E-001,
9.744666666666668E+008,-3.961308673024178E-002,5.056010186672211E-002,-9.752318859100342E-001,-1.786949485540390E-001,-3.961308673024178E-002,5.056010186672211E-002,-9.752318859100342E-001,-1.786949485540390E-001,
9.828333333333334E+008,-2.723728306591511E-002,4.856308177113533E-002,-9.778842926025391E-001,-1.583205759525299E-001,-2.723728306591511E-002,4.856308177113533E-002,-9.778842926025391E-001,-1.583205759525299E-001,
9.912000000000000E+008,-2.100641466677189E-002,4.317990690469742E-002,-9.781299829483032E-001,-1.294612735509872E-001,-2.100641466677189E-002,4.317990690469742E-002,-9.781299829483032E-001,-1.294612735509872E-001,
9.995666666666668E+008,-1.511422730982304E-002,3.570762276649475E-002,-9.952213168144226E-001,-9.263160079717636E-002,-1.511422730982304E-002,3.570762276649475E-002,-9.952213168144226E-001,-9.263160079717636E-002,
1.007933333333333E+009,-1.668062433600426E-002,2.739977836608887E-002,-9.926592707633972E-001,-8.016325533390045E-002,-1.668062433600426E-002,2.739977836608887E-002,-9.926592707633972E-001,-8.016325533390045E-002,
1.016300000000000E+009,-2.368637360632420E-002,2.324404194951057E-002,-9.965710639953613E-001,-5.273905023932457E-002,-2.368637360632420E-002,2.324404194951057E-002,-9.965710639953613E-001,-5.273905023932457E-002,
1.024666666666667E+009,-3.199125081300736E-002,1.835936121642590E-002,-9.971922636032105E-001,-1.893672533333302E-002,-3.199125081300736E-002,1.835936121642590E-002,-9.971922636032105E-001,-1.893672533333302E-002,
1.033033333333333E+009,-3.938221558928490E-002,2.274581417441368E-002,-9.958863258361816E-001,7.139897206798196E-004,-3.938221558928490E-002,2.274581417441368E-002,-9.958863258361816E-001,7.139897206798196E-004,
1.041400000000000E+009,-4.617903009057045E-002,3.000854514539242E-002,-9.818930029869080E-001,3.911645710468292E-002,-4.617903009057045E-002,3.000854514539242E-002,-9.818930029869080E-001,3.911645710468292E-002,
1.049766666666667E+009,-4.781134426593781E-002,4.000973701477051E-002,-9.925883412361145E-001,5.649954080581665E-002,-4.781134426593781E-002,4.000973701477051E-002,-9.925883412361145E-001,5.649954080581665E-002,
1.058133333333333E+009,-4.300096631050110E-002,4.791599139571190E-002,-9.881165623664856E-001,7.485792785882950E-002,-4.300096631050110E-002,4.791599139571190E-002,-9.881165623664856E-001,7.485792785882950E-002,
1.066500000000000E+009,-3.346723690629005E-002,5.457385629415512E-002,-9.956995844841003E-001,1.138526499271393E-001,-3.346723690629005E-002,5.457385629415512E-002,-9.956995844841003E-001,1.138526499271393E-001,
1.074866666666667E+009,-2.290751598775387E-002,5.333351343870163E-002,-9.798086881637573E-001,1.305753141641617E-001,-2.290751598775387E-002,5.333351343870163E-002,-9.798086881637573E-001,1.305753141641617E-001,
1.083233333333334E+009,-1.231054682284594E-002,4.421186819672585E-002,-9.777718782424927E-001,1.526469439268112E-001,-1.231054682284594E-002,4.421186819672585E-002,-9.777718782424927E-001,1.526469439268112E-001,
1.091600000000000E+009,-6.958718877285719E-003,3.493589535355568E-002,-9.699172377586365E-001,1.759901046752930E-001,-6.958718877285719E-003,3.493589535355568E-002,-9.699172377586365E-001,1.759901046752930E-001,
1.099966666666667E+009,-7.188444957137108E-003,2.329392172396183E-002,-9.718866944313049E-001,2.142669409513474E-001,-7.188444957137108E-003,2.329392172396183E-002,-9.718866944313049E-001,2.142669409513474E-001,
1.108333333333334E+009,-1.688294485211372E-002,1.395148877054453E-002,-9.493344426155090E-001,2.185524851083756E-001,-1.688294485211372E-002,1.395148877054453E-002,-9.493344426155090E-001,2.185524851083756E-001,
1.116700000000000E+009,-2.894228138029575E-002,1.552570704370737E-002,-9.503346681594849E-001,2.652966380119324E-001,-2.894228138029575E-002,1.552570704370737E-002,-9.503346681594849E-001,2.652966380119324E-001,
1.125066666666667E+009,-4.348453879356384E-002,1.759338565170765E-002,-9.535425305366516E-001,2.747624516487122E-001,-4.348453879356384E-002,1.759338565170765E-002,-9.535425305366516E-001,2.747624516487122E-001,
1.133433333333334E+009,-5.272838473320007E-002,3.158408403396606E-002,-9.533740282058716E-001,2.990177273750305E-001,-5.272838473320007E-002,3.158408403396606E-002,-9.533740282058716E-001,2.990177273750305E-001,
1.141800000000000E+009,-5.385698005557060E-002,4.491656273603439E-002,-9.259542226791382E-001,3.183891773223877E-001,-5.385698005557060E-002,4.491656273603439E-002,-9.259542226791382E-001,3.183891773223877E-001,
1.150166666666667E+009,-4.800227284431458E-002,6.193049997091293E-002,-9.093269705772400E-001,3.483532965183258E-001,-4.800227284431458E-002,6.193049997091293E-002,-9.093269705772400E-001,3.483532965183258E-001,
1.158533333333334E+009,-3.418319672346115E-002,7.043468207120895E-002,-9.127540588378906E-001,3.725706934928894E-001,-3.418319672346115E-002,7.043468207120895E-002,-9.127540588378906E-001,3.725706934928894E-001,
1.166900000000000E+009,-1.572955586016178E-002,7.140784710645676E-002,-9.039648771286011E-001,4.058775901794434E-001,-1.572955586016178E-002,7.140784710645676E-002,-9.039648771286011E-001,4.058775901794434E-001,
1.175266666666667E+009,3.317308146506548E-004,6.094102934002876E-002,-8.956770896911621E-001,4.111584126949310E-001,3.317308146506548E-004,6.094102934002876E-002,-8.956770896911621E-001,4.111584126949310E-001,
1.183633333333334E+009,1.122689060866833E-002,4.632320627570152E-002,-8.846294283866882E-001,4.519715905189514E-001,1.122689060866833E-002,4.632320627570152E-002,-8.846294283866882E-001,4.519715905189514E-001,
1.192000000000000E+009,1.171523053199053E-002,2.704101987183094E-002,-8.748818635940552E-001,4.599409997463226E-001,1.171523053199053E-002,2.704101987183094E-002,-8.748818635940552E-001,4.599409997463226E-001,
1.200366666666667E+009,7.865518564358354E-004,1.269208453595638E-002,-8.651129603385925E-001,4.889127612113953E-001,7.865518564358354E-004,1.269208453595638E-002,-8.651129603385925E-001,4.889127612113953E-001,
1.208733333333334E+009,-1.551185455173254E-002,4.147806670516729E-003,-8.601403832435608E-001,5.083425045013428E-001,-1.551185455173254E-002,4.147806670516729E-003,-8.601403832435608E-001,5.083425045013428E-001,
1.217100000000000E+009,-3.353953734040260E-002,1.034400332719088E-002,-8.402450680732727E-001,5.280137062072754E-001,-3.353953734040260E-002,1.034400332719088E-002,-8.402450680732727E-001,5.280137062072754E-001,
1.225466666666667E+009,-4.423416033387184E-002,2.180893719196320E-002,-8.169193267822266E-001,5.542947053909302E-001,-4.423416033387184E-002,2.180893719196320E-002,-8.169193267822266E-001,5.542947053909302E-001,
1.233833333333334E+009,-5.136032402515411E-002,3.881113603711128E-002,-7.995284199714661E-001,5.711798071861267E-001,-5.136032402515411E-002,3.881113603711128E-002,-7.995284199714661E-001,5.711798071861267E-001,
1.242200000000000E+009,-4.796991124749184E-002,5.728316679596901E-002,-7.859628796577454E-001,5.833973288536072E-001,-4.796991124749184E-002,5.728316679596901E-002,-7.859628796577454E-001,5.833973288536072E-001,
1.250566666666667E+009,-3.290369361639023E-002,6.899265944957733E-002,-7.608145475387573E-001,6.105878949165344E-001,-3.290369361639023E-002,6.899265944957733E-002,-7.608145475387573E-001,6.105878949165344E-001,
1.258933333333334E+009,-1.381217129528523E-002,7.123163342475891E-002,-7.697942256927490E-001,6.296024918556213E-001,-1.381217129528523E-002,7.123163342475891E-002,-7.697942256927490E-001,6.296024918556213E-001,
1.267300000000000E+009,4.543071612715721E-003,6.138461083173752E-002,-7.518589496612549E-001,6.436702609062195E-001,4.543071612715721E-003,6.138461083173752E-002,-7.518589496612549E-001,6.436702609062195E-001,
1.275666666666667E+009,1.431832928210497E-002,4.321737959980965E-002,-7.185891866683960E-001,6.688798666000366E-001,1.431832928210497E-002,4.321737959980965E-002,-7.185891866683960E-001,6.688798666000366E-001,
1.284033333333334E+009,1.375782676041126E-002,2.254697307944298E-002,-7.123717665672302E-001,6.908556222915649E-001,1.375782676041126E-002,2.254697307944298E-002,-7.123717665672302E-001,6.908556222915649E-001,
1.292400000000000E+009,2.382309641689062E-003,6.107366178184748E-003,-6.973029971122742E-001,7.056485414505005E-001,2.382309641689062E-003,6.107366178184748E-003,-6.973029971122742E-001,7.056485414505005E-001,
1.300766666666667E+009,-1.630381122231484E-002,-2.061184030026197E-003,-6.742230653762817E-001,7.239127159118652E-001,-1.630381122231484E-002,-2.061184030026197E-003,-6.742230653762817E-001,7.239127159118652E-001,
1.309133333333334E+009,-3.708207607269287E-002,2.043857472017407E-003,-6.612812280654907E-001,7.415446043014526E-001,-3.708207607269287E-002,2.043857472017407E-003,-6.612812280654907E-001,7.415446043014526E-001,
1.317500000000000E+009,-5.121379345655441E-002,1.679965481162071E-002,-6.343331336975098E-001,7.553669810295105E-001,-5.121379345655441E-002,1.679965481162071E-002,-6.343331336975098E-001,7.553669810295105E-001,
1.325866666666667E+009,-5.600026994943619E-002,3.718693926930428E-002,-6.198883056640625E-001,7.672468423843384E-001,-5.600026994943619E-002,3.718693926930428E-002,-6.198883056640625E-001,7.672468423843384E-001,
1.334233333333334E+009,-4.885612800717354E-002,5.610891059041023E-002,-5.908971428871155E-001,7.869809865951538E-001,-4.885612800717354E-002,5.610891059041023E-002,-5.908971428871155E-001,7.869809865951538E-001,
1.342600000000000E+009,-3.437203913927078E-002,6.677383929491043E-002,-5.726205706596375E-001,8.031944036483765E-001,-3.437203913927078E-002,6.677383929491043E-002,-5.726205706596375E-001,8.031944036483765E-001,
1.350966666666667E+009,-1.565600745379925E-002,6.706850230693817E-002,-5.448926091194153E-001,8.299413919448853E-001,-1.565600745379925E-002,6.706850230693817E-002,-5.448926091194153E-001,8.299413919448853E-001,
1.359333333333334E+009,-4.443991638254374E-004,5.705881118774414E-002,-5.336313843727112E-001,8.326361179351807E-001,-4.443991638254374E-004,5.705881118774414E-002,-5.336313843727112E-001,8.326361179351807E-001,
1.367700000000000E+009,4.081151913851500E-003,3.649932518601418E-002,-5.174518823623657E-001,8.420332670211792E-001,4.081151913851500E-003,3.649932518601418E-002,-5.174518823623657E-001,8.420332670211792E-001,
1.376066666666667E+009,-5.008616062696092E-005,1.866768486797810E-002,-5.017834901809692E-001,8.609582185745239E-001,-5.008616062696092E-005,1.866768486797810E-002,-5.017834901809692E-001,8.609582185745239E-001,
1.384433333333334E+009,-1.693343743681908E-002,2.708408515900374E-003,-4.722082912921906E-001,8.847743868827820E-001,-1.693343743681908E-002,2.708408515900374E-003,-4.722082912921906E-001,8.847743868827820E-001,
1.392800000000000E+009,-3.815745562314987E-002,1.172410673461855E-003,-4.574991166591644E-001,8.783895969390869E-001,-3.815745562314987E-002,1.172410673461855E-003,-4.574991166591644E-001,8.783895969390869E-001,
1.401166666666667E+009,-5.850743502378464E-002,1.243886351585388E-002,-4.328975081443787E-001,8.974749445915222E-001,-5.850743502378464E-002,1.243886351585388E-002,-4.328975081443787E-001,8.974749445915222E-001,
1.409533333333334E+009,-7.102127373218536E-002,2.965301088988781E-002,-3.994135856628418E-001,9.070690274238586E-001,-7.102127373218536E-002,2.965301088988781E-002,-3.994135856628418E-001,9.070690274238586E-001,
1.417900000000000E+009,-7.203911989927292E-002,5.573715269565582E-002,-3.881614208221436E-001,8.996726870536804E-001,-7.203911989927292E-002,5.573715269565582E-002,-3.881614208221436E-001,8.996726870536804E-001,
1.426266666666667E+009,-5.918547511100769E-002,7.505294680595398E-002,-3.540781438350678E-001,9.213458299636841E-001,-5.918547511100769E-002,7.505294680595398E-002,-3.540781438350678E-001,9.213458299636841E-001,
1.434633333333334E+009,-4.042487218976021E-002,8.728366345167160E-002,-3.249697983264923E-001,9.312409162521362E-001,-4.042487218976021E-002,8.728366345167160E-002,-3.249697983264923E-001,9.312409162521362E-001,
1.443000000000000E+009,-1.845639385282993E-002,8.744917064905167E-002,-3.095466792583466E-001,9.359298348426819E-001,-1.845639385282993E-002,8.744917064905167E-002,-3.095466792583466E-001,9.359298348426819E-001,
1.451366666666667E+009,-1.922301831655204E-003,7.599184662103653E-002,-2.825634181499481E-001,9.392306208610535E-001,-1.922301831655204E-003,7.599184662103653E-002,-2.825634181499481E-001,9.392306208610535E-001,
1.459733333333334E+009,6.905082147568464E-003,5.564404651522636E-002,-2.618051171302795E-001,9.492118954658508E-001,6.905082147568464E-003,5.564404651522636E-002,-2.618051171302795E-001,9.492118954658508E-001,
