% Version 1.00
%
%freq[Hz],re:Trc1_S11,im:Trc1_S11,re:Trc2_S21,im:Trc2_S21,
6.900000000000000E+008,-2.302665561437607E-001,2.374814897775650E-001,-5.024693608283997E-001,-7.316693663597107E-001,
7.015500000000000E+008,-2.096569985151291E-001,2.514694333076477E-001,-5.249975919723511E-001,-7.132264375686646E-001,
7.131000000000000E+008,-1.916456818580627E-001,2.548609077930450E-001,-5.499066114425659E-001,-6.992480754852295E-001,
7.246500000000000E+008,-1.816914975643158E-001,2.527289390563965E-001,-5.767859816551209E-001,-6.795604228973389E-001,
7.362000000000000E+008,-1.817380040884018E-001,2.518770992755890E-001,-6.028193831443787E-001,-6.553404927253723E-001,
7.477500000000000E+008,-1.868687719106674E-001,2.588362395763397E-001,-6.258972287178040E-001,-6.279950141906738E-001,
7.593000000000000E+008,-1.892243325710297E-001,2.748468518257141E-001,-6.446616649627686E-001,-5.996012091636658E-001,
7.708500000000000E+008,-1.830224096775055E-001,2.961418628692627E-001,-6.592221856117249E-001,-5.735079646110535E-001,
7.824000000000000E+008,-1.671450883150101E-001,3.160013258457184E-001,-6.729197502136231E-001,-5.498739480972290E-001,
7.939500000000000E+008,-1.450671851634979E-001,3.289079964160919E-001,-6.873061656951904E-001,-5.280733704566956E-001,
8.055000000000000E+008,-1.233341842889786E-001,3.325618505477905E-001,-7.048099637031555E-001,-5.070471167564392E-001,
8.170500000000000E+008,-1.078944578766823E-001,3.298522233963013E-001,-7.241155505180359E-001,-4.831780195236206E-001,
8.286000000000000E+008,-1.012615114450455E-001,3.261880278587341E-001,-7.429089546203613E-001,-4.558418393135071E-001,
8.401500000000000E+008,-1.014297604560852E-001,3.274840712547302E-001,-7.595317959785461E-001,-4.250486791133881E-001,
8.517000000000000E+008,-1.018544286489487E-001,3.369592130184174E-001,-7.717210054397583E-001,-3.925956189632416E-001,
8.632500000000000E+008,-9.665661305189133E-002,3.531426191329956E-001,-7.800322175025940E-001,-3.609024882316589E-001,
8.748000000000000E+008,-8.233372867107391E-002,3.704373538494110E-001,-7.848263978958130E-001,-3.322742283344269E-001,
8.863500000000000E+008,-6.029732152819634E-002,3.837887942790985E-001,-7.898454666137695E-001,-3.063833415508270E-001,
8.979000000000000E+008,-3.506006300449371E-002,3.893680870532990E-001,-7.961392998695374E-001,-2.824068367481232E-001,
9.094500000000000E+008,-1.257491484284401E-002,3.874305486679077E-001,-8.051992654800415E-001,-2.577896118164063E-001,
9.210000000000000E+008,2.980117918923497E-003,3.812271058559418E-001,-8.150990009307861E-001,-2.307896763086319E-001,
9.325500000000000E+008,1.050698384642601E-002,3.756649792194367E-001,-8.253083229064941E-001,-2.003479301929474E-001,
9.441000000000000E+008,1.361138653010130E-002,3.757319152355194E-001,-8.310152888298035E-001,-1.673016846179962E-001,
9.556500000000000E+008,1.803035475313664E-002,3.826074898242950E-001,-8.335157632827759E-001,-1.333185434341431E-001,
9.672000000000000E+008,2.925021387636662E-002,3.939804136753082E-001,-8.314662575721741E-001,-1.011707186698914E-001,
9.787500000000000E+008,4.892430454492569E-002,4.044873416423798E-001,-8.272659778594971E-001,-7.315083593130112E-002,
9.903000000000000E+008,7.462406903505325E-002,4.089044332504273E-001,-8.241099715232849E-001,-4.786816611886025E-002,
1.001850000000000E+009,1.002881228923798E-001,4.054811298847199E-001,-8.228884935379028E-001,-2.394739352166653E-002,
1.013400000000000E+009,1.209655627608299E-001,3.959414660930634E-001,-8.239075541496277E-001,6.073809345252812E-004,
1.024950000000000E+009,1.323926746845245E-001,3.847996294498444E-001,-8.263620734214783E-001,2.893209457397461E-002,
1.036500000000000E+009,1.366475820541382E-001,3.779297471046448E-001,-8.264694213867188E-001,6.150437146425247E-002,
1.048050000000000E+009,1.392230540513992E-001,3.787004351615906E-001,-8.218832612037659E-001,9.529459476470947E-002,
1.059600000000000E+009,1.473038345575333E-001,3.862150609493256E-001,-8.117235898971558E-001,1.272869557142258E-001,
1.071150000000000E+009,1.657185554504395E-001,3.946043550968170E-001,-7.979305982589722E-001,1.551659852266312E-001,
1.082700000000000E+009,1.927646249532700E-001,3.966039121150971E-001,-7.850880622863770E-001,1.777874678373337E-001,
1.094250000000000E+009,2.218390256166458E-001,3.886298239231110E-001,-7.750767469406128E-001,1.973625272512436E-001,
1.105800000000000E+009,2.460242509841919E-001,3.719113171100617E-001,-7.691618204116821E-001,2.170715928077698E-001,
1.117350000000000E+009,2.591222822666168E-001,3.515632152557373E-001,-7.670751810073853E-001,2.409541457891464E-001,
1.128900000000000E+009,2.614083886146545E-001,3.359900712966919E-001,-7.624850273132324E-001,2.704322338104248E-001,
1.140450000000000E+009,2.585049867630005E-001,3.307221829891205E-001,-7.525998353958130E-001,3.034607172012329E-001,
1.152000000000000E+009,2.608041465282440E-001,3.359627127647400E-001,-7.353988885879517E-001,3.357374966144562E-001,
1.163550000000000E+009,2.752467691898346E-001,3.446843624114990E-001,-7.124469876289368E-001,3.620068430900574E-001,
1.175100000000000E+009,3.019513487815857E-001,3.463432490825653E-001,-6.893539428710938E-001,3.801443576812744E-001,
1.186650000000000E+009,3.329070210456848E-001,3.355573415756226E-001,-6.709486842155457E-001,3.936369419097900E-001,
1.198200000000000E+009,3.594991564750671E-001,3.129984438419342E-001,-6.586678028106690E-001,4.059470295906067E-001,
1.209750000000000E+009,3.738481402397156E-001,2.847795486450195E-001,-6.515340805053711E-001,4.224002063274384E-001,
1.221300000000000E+009,3.749610185623169E-001,2.603954076766968E-001,-6.449441313743591E-001,4.457727074623108E-001,
1.232850000000000E+009,3.681052029132843E-001,2.475609481334686E-001,-6.326686739921570E-001,4.745122492313385E-001,
1.244400000000000E+009,3.637802898883820E-001,2.474154233932495E-001,-6.120734214782715E-001,5.044792294502258E-001,
1.255950000000000E+009,3.718396425247192E-001,2.534053921699524E-001,-5.835776925086975E-001,5.282700657844544E-001,
1.267500000000000E+009,3.936226665973663E-001,2.532330453395844E-001,-5.536199212074280E-001,5.428175330162048E-001,
1.279050000000000E+009,4.208082556724548E-001,2.398517280817032E-001,-5.289686918258667E-001,5.506196022033691E-001,
1.290600000000000E+009,4.431559145450592E-001,2.135350853204727E-001,-5.115340948104858E-001,5.572035312652588E-001,
1.302150000000000E+009,4.536156654357910E-001,1.814625263214111E-001,-5.001549720764160E-001,5.680311322212219E-001,
1.313700000000000E+009,4.505599439144135E-001,1.543647497892380E-001,-4.894651770591736E-001,5.868576169013977E-001,
1.325250000000000E+009,4.396277666091919E-001,1.401290595531464E-001,-4.730933010578156E-001,6.117658615112305E-001,
1.336800000000000E+009,4.320868253707886E-001,1.405467092990875E-001,-4.462559223175049E-001,6.372980475425720E-001,
1.348350000000000E+009,4.386009573936462E-001,1.473540514707565E-001,-4.104832112789154E-001,6.558325290679932E-001,
1.359900000000000E+009,4.596401751041412E-001,1.468481123447418E-001,-3.738937079906464E-001,6.625105142593384E-001,
1.371450000000000E+009,4.866327345371246E-001,1.300582587718964E-001,-3.448440432548523E-001,6.604946255683899E-001,
1.383000000000000E+009,5.075469613075256E-001,9.837350249290466E-002,-3.247488439083099E-001,6.570599079132080E-001,
1.394550000000000E+009,5.153209567070007E-001,5.983123928308487E-002,-3.127123117446899E-001,6.582552194595337E-001,
1.406100000000000E+009,5.090219378471375E-001,2.565335854887962E-002,-3.026224970817566E-001,6.680472493171692E-001,
1.417650000000000E+009,4.934908747673035E-001,4.130206070840359E-003,-2.874431610107422E-001,6.856692433357239E-001,
1.429200000000000E+009,4.789582788944244E-001,-1.555759808979929E-003,-2.627316713333130E-001,7.063150405883789E-001,
1.440750000000000E+009,4.754783213138580E-001,2.416962990537286E-003,-2.279123216867447E-001,7.211972475051880E-001,
1.452300000000000E+009,4.866141080856323E-001,3.043976612389088E-003,-1.896022409200668E-001,7.253572344779968E-001,
1.463850000000000E+009,5.048820376396179E-001,-1.018735207617283E-002,-1.563245058059692E-001,7.197216749191284E-001,
1.475400000000000E+009,5.191868543624878E-001,-3.754527121782303E-002,-1.323229223489761E-001,7.107372283935547E-001,
1.486950000000000E+009,5.226094722747803E-001,-7.219731807708740E-002,-1.162047386169434E-001,7.051696181297302E-001,
1.498500000000000E+009,5.146314501762390E-001,-1.046404615044594E-001,-1.029559299349785E-001,7.062831521034241E-001,
1.510050000000000E+009,4.998497962951660E-001,-1.269634515047073E-001,-8.583398163318634E-002,7.144395709037781E-001,
1.521600000000000E+009,4.863261580467224E-001,-1.368606537580490E-001,-6.170629709959030E-002,7.244530320167542E-001,
1.533150000000000E+009,4.809185564517975E-001,-1.394583582878113E-001,-2.933214791119099E-002,7.299541831016541E-001,
1.544700000000000E+009,4.860079884529114E-001,-1.440701931715012E-001,4.916737321764231E-003,7.269347310066223E-001,
1.556250000000000E+009,4.953557848930359E-001,-1.596207022666931E-001,3.512198850512505E-002,7.159389257431030E-001,
1.567800000000000E+009,5.001550316810608E-001,-1.860836446285248E-001,5.741424858570099E-002,7.026176452636719E-001,
1.579350000000000E+009,4.949679076671600E-001,-2.181414663791657E-001,7.234289497137070E-002,6.923425793647766E-001,
1.590900000000000E+009,4.799629449844360E-001,-2.496964782476425E-001,8.668732643127441E-002,6.869280934333801E-001,
1.602450000000000E+009,4.602853357791901E-001,-2.707558274269104E-001,1.023187637329102E-001,6.888254880905151E-001,
1.614000000000000E+009,4.419895112514496E-001,-2.809503972530365E-001,1.246743276715279E-001,6.924219131469727E-001,
1.625550000000000E+009,4.312257170677185E-001,-2.835325300693512E-001,1.538798511028290E-001,6.929598450660706E-001,
1.637100000000000E+009,4.297817349433899E-001,-2.869751751422882E-001,1.861467957496643E-001,6.854463219642639E-001,
1.648650000000000E+009,4.327726364135742E-001,-2.981808781623840E-001,2.150567770004273E-001,6.703944206237793E-001,
1.660200000000000E+009,4.324834942817688E-001,-3.187944591045380E-001,2.370842993259430E-001,6.518299579620361E-001,
1.671750000000000E+009,4.241279065608978E-001,-3.453438580036163E-001,2.523140013217926E-001,6.351975798606873E-001,
1.683300000000000E+009,4.065742492675781E-001,-3.712106347084045E-001,2.642556428909302E-001,6.236592531204224E-001,
1.694850000000000E+009,3.845310807228088E-001,-3.911376297473908E-001,2.767198085784912E-001,6.169490814208984E-001,
1.706400000000000E+009,3.626892864704132E-001,-4.030385315418243E-001,2.939209938049316E-001,6.132178306579590E-001,
1.717950000000000E+009,3.462707996368408E-001,-4.077115952968597E-001,3.164440095424652E-001,6.088385581970215E-001,
1.729500000000000E+009,3.374545574188232E-001,-4.102807044982910E-001,3.431867361068726E-001,5.982935428619385E-001,
1.741050000000000E+009,3.331919610500336E-001,-4.161422550678253E-001,3.691446185112000E-001,5.816125273704529E-001,
1.752600000000000E+009,3.286753892898560E-001,-4.286352396011353E-001,3.902179896831513E-001,5.600081086158752E-001,
1.764150000000000E+009,3.188888430595398E-001,-4.471710622310638E-001,4.054075181484222E-001,5.377165079116821E-001,
1.775700000000000E+009,3.019236326217651E-001,-4.672568440437317E-001,4.157668352127075E-001,5.183239579200745E-001,
1.787250000000000E+009,2.805438637733460E-001,-4.878708124160767E-001,4.256381988525391E-001,4.993427693843842E-001,
1.798800000000000E+009,2.561166286468506E-001,-5.000879764556885E-001,4.362784922122955E-001,4.879431724548340E-001,
1.810350000000000E+009,2.333533912897110E-001,-5.063701272010803E-001,4.503848850727081E-001,4.776766300201416E-001,
1.821900000000000E+009,2.159686535596848E-001,-5.085461139678955E-001,4.680573940277100E-001,4.658860266208649E-001,
1.833450000000000E+009,2.035385817289352E-001,-5.104541778564453E-001,4.878758788108826E-001,4.490250051021576E-001,
1.845000000000000E+009,1.936881244182587E-001,-5.155192017555237E-001,5.056536793708801E-001,4.273516237735748E-001,
1.856550000000000E+009,1.822518855333328E-001,-5.255619287490845E-001,5.186064243316650E-001,4.026564955711365E-001,
1.868100000000000E+009,1.656660437583923E-001,-5.388987064361572E-001,5.260000228881836E-001,3.790766000747681E-001,
1.879650000000000E+009,1.424817591905594E-001,-5.520036220550537E-001,5.298857092857361E-001,3.588555157184601E-001,
1.891200000000000E+009,1.160601377487183E-001,-5.623001456260681E-001,5.340245366096497E-001,3.417629301548004E-001,
1.902750000000000E+009,8.911655843257904E-002,-5.654277801513672E-001,5.405276417732239E-001,3.295061290264130E-001,
1.914300000000000E+009,6.628447771072388E-002,-5.631483197212219E-001,5.519236326217651E-001,3.175887167453766E-001,
1.925850000000000E+009,5.010740831494331E-002,-5.579851269721985E-001,5.673435926437378E-001,3.018765747547150E-001,
1.937400000000000E+009,4.005186632275581E-002,-5.546121597290039E-001,5.829116702079773E-001,2.794832587242127E-001,
1.948950000000000E+009,3.164819255471230E-002,-5.572388768196106E-001,5.943931937217712E-001,2.514191269874573E-001,
1.960500000000000E+009,1.848154328763485E-002,-5.659307837486267E-001,5.980955958366394E-001,2.215938866138458E-001,
1.972050000000000E+009,-2.958469558507204E-003,-5.765735507011414E-001,5.949105024337769E-001,1.958435773849487E-001,
1.983600000000000E+009,-3.219584003090859E-002,-5.839583873748779E-001,5.894113183021545E-001,1.769559830427170E-001,
1.995150000000000E+009,-6.413281708955765E-002,-5.842714309692383E-001,5.863589048385620E-001,1.646168231964111E-001,
2.006700000000000E+009,-9.326556324958801E-002,-5.768586993217468E-001,5.892542600631714E-001,1.550443619489670E-001,
2.018250000000000E+009,-1.146117523312569E-001,-5.643216967582703E-001,5.987884402275085E-001,1.433365046977997E-001,
2.029800000000000E+009,-1.267705857753754E-001,-5.517858266830444E-001,6.120240092277527E-001,1.246550902724266E-001,
2.041350000000000E+009,-1.330294758081436E-001,-5.449827909469605E-001,6.227812170982361E-001,9.757688641548157E-002,
2.052900000000000E+009,-1.409118026494980E-001,-5.463085174560547E-001,6.250541806221008E-001,6.541207432746887E-002,
2.064450000000000E+009,-1.575405150651932E-001,-5.526019334793091E-001,6.176987886428833E-001,3.523563593626022E-002,
2.076000000000000E+009,-1.837249100208283E-001,-5.564382076263428E-001,6.053325533866882E-001,1.385629829019308E-002,
2.087550000000000E+009,-2.147414535284042E-001,-5.527456402778626E-001,5.943619608879089E-001,1.047246041707695E-003,
2.099100000000000E+009,-2.436592131853104E-001,-5.406147241592407E-001,5.900916457176209E-001,-6.987392436712980E-003,
2.110650000000000E+009,-2.652342021465302E-001,-5.230811238288879E-001,5.934639573097229E-001,-1.654518395662308E-002,
2.122200000000000E+009,-2.770377397537231E-001,-5.055329799652100E-001,6.018558144569397E-001,-3.291604295372963E-002,
2.133750000000000E+009,-2.816477119922638E-001,-4.941149353981018E-001,6.083534359931946E-001,-5.905731394886971E-002,
2.145300000000000E+009,-2.867600917816162E-001,-4.918000102043152E-001,6.061440706253052E-001,-9.127223491668701E-002,
2.156850000000000E+009,-3.010276854038239E-001,-4.943507909774780E-001,5.926228761672974E-001,-1.210734471678734E-001,
2.168400000000000E+009,-3.262995183467865E-001,-4.935945868492127E-001,5.731222629547119E-001,-1.413366198539734E-001,
2.179950000000000E+009,-3.573317825794220E-001,-4.834358990192413E-001,5.560311079025269E-001,-1.513162106275559E-001,
2.191500000000000E+009,-3.863347470760346E-001,-4.638283848762512E-001,5.465421676635742E-001,-1.562024801969528E-001,
2.203050000000000E+009,-4.071134626865387E-001,-4.387448728084564E-001,5.461571216583252E-001,-1.622557491064072E-001,
2.214600000000000E+009,-4.169387519359589E-001,-4.143740236759186E-001,5.518906712532044E-001,-1.755935698747635E-001,
2.226150000000000E+009,-4.179943799972534E-001,-3.970940113067627E-001,5.562226176261902E-001,-1.992318481206894E-001,
2.237700000000000E+009,-4.182915985584259E-001,-3.904338479042053E-001,5.517971515655518E-001,-2.305707037448883E-001,
2.249250000000000E+009,-4.269551038742065E-001,-3.900228440761566E-001,5.343653559684753E-001,-2.602880895137787E-001,
2.260800000000000E+009,-4.475269019603729E-001,-3.866559565067291E-001,5.095326304435730E-001,-2.792026102542877E-001,
2.272350000000000E+009,-4.743740856647492E-001,-3.727015256881714E-001,4.867340028285980E-001,-2.866005301475525E-001,
2.283900000000000E+009,-4.992964267730713E-001,-3.483357727527618E-001,4.726020693778992E-001,-2.876453697681427E-001,
2.295450000000000E+009,-5.163587331771851E-001,-3.184760510921478E-001,4.682991802692413E-001,-2.899824380874634E-001,
2.307000000000000E+009,-5.231315493583679E-001,-2.893769443035126E-001,4.701206982135773E-001,-2.993750870227814E-001,
2.318550000000000E+009,-5.207350254058838E-001,-2.682546377182007E-001,4.719679355621338E-001,-3.192356526851654E-001,
2.330100000000000E+009,-5.168212652206421E-001,-2.577822506427765E-001,4.651049375534058E-001,-3.471031188964844E-001,
2.341650000000000E+009,-5.205117464065552E-001,-2.546263635158539E-001,4.453423023223877E-001,-3.743247389793396E-001,
2.353200000000000E+009,-5.353795289993286E-001,-2.490088492631912E-001,4.169711470603943E-001,-3.910420536994934E-001,
2.364750000000000E+009,-5.565034151077271E-001,-2.326029837131500E-001,3.903606235980988E-001,-3.953814208507538E-001,
2.376300000000000E+009,-5.752546787261963E-001,-2.051708847284317E-001,3.729359209537506E-001,-3.928379416465759E-001,
2.387850000000000E+009,-5.861939191818237E-001,-1.723006218671799E-001,3.652471899986267E-001,-3.914444744586945E-001,
2.399400000000000E+009,-5.877584218978882E-001,-1.408511847257614E-001,3.637093007564545E-001,-3.974581956863403E-001,
2.410950000000000E+009,-5.820001959800720E-001,-1.171786934137344E-001,3.620538413524628E-001,-4.132936596870422E-001,
2.422500000000000E+009,-5.749403834342957E-001,-1.042376682162285E-001,3.525765240192413E-001,-4.363189637660980E-001,
2.434050000000000E+009,-5.746385455131531E-001,-9.871217608451843E-002,3.310412466526032E-001,-4.591830074787140E-001,
2.445600000000000E+009,-5.842879414558411E-001,-9.111797809600830E-002,3.009341657161713E-001,-4.717830121517181E-001,
2.457150000000000E+009,-5.991173386573792E-001,-7.316713780164719E-002,2.725879251956940E-001,-4.721577763557434E-001,
2.468700000000000E+009,-6.108139157295227E-001,-4.448537528514862E-002,2.533791363239288E-001,-4.653019309043884E-001,
2.480250000000000E+009,-6.142955422401428E-001,-1.040479540824890E-002,2.442629784345627E-001,-4.597684442996979E-001,
2.491800000000000E+009,-6.091797947883606E-001,2.170132286846638E-002,2.416873574256897E-001,-4.611532390117645E-001,
2.503350000000000E+009,-5.986286401748657E-001,4.758310690522194E-002,2.384815067052841E-001,-4.731929004192352E-001,
2.514900000000000E+009,-5.863581299781799E-001,6.194520369172096E-002,2.284440994262695E-001,-4.918268024921417E-001,
2.526450000000000E+009,-5.800148844718933E-001,6.844648718833923E-002,2.067022621631622E-001,-5.116815567016602E-001,
2.538000000000000E+009,-5.835834741592407E-001,7.514841109514237E-002,1.760050505399704E-001,-5.222783684730530E-001,
2.549550000000000E+009,-5.924252271652222E-001,9.088584780693054E-002,1.452196687459946E-001,-5.200968980789185E-001,
2.561100000000000E+009,-5.984190702438355E-001,1.175386309623718E-001,1.231925711035729E-001,-5.100271105766296E-001,
2.572650000000000E+009,-5.969443917274475E-001,1.499446183443070E-001,1.115515157580376E-001,-5.001873970031738E-001,
2.584200000000000E+009,-5.869963169097900E-001,1.810851693153381E-001,1.064462140202522E-001,-4.968187808990479E-001,
2.595750000000000E+009,-5.718021392822266E-001,2.056526392698288E-001,1.016784682869911E-001,-5.016871094703674E-001,
2.607300000000000E+009,-5.560851693153381E-001,2.211730033159256E-001,9.119201451539993E-002,-5.132606029510498E-001,
2.618850000000000E+009,-5.456331372261047E-001,2.294234931468964E-001,7.106246799230576E-002,-5.259529352188110E-001,
2.630400000000000E+009,-5.431140065193176E-001,2.367278337478638E-001,4.277872294187546E-002,-5.320018529891968E-001,
