% Version 1.00
%
%freq[Hz],re:Trc1_S11,im:Trc1_S11,re:Trc2_S21,im:Trc2_S21,re:Trc3_S12,im:Trc3_S12,re:Trc4_S22,im:Trc4_S22,
1.000000000000000E+007,4.985559266060591E-003,4.457708913832903E-003,9.759134650230408E-001,-2.935243770480156E-002,1.035970091819763E+000,-1.145775914192200E-001,-3.750829026103020E-002,3.174700215458870E-002,
1.299500000000000E+008,-4.829796496778727E-003,-1.066530775278807E-002,9.288143515586853E-001,-3.378570079803467E-001,9.303936958312988E-001,-3.453957438468933E-001,-6.746341940015554E-003,-1.213799882680178E-002,
2.499000000000000E+008,-1.690005138516426E-002,-1.871840842068195E-002,7.817556262016296E-001,-6.022578477859497E-001,7.774018645286560E-001,-6.023674011230469E-001,-1.781003922224045E-002,-1.710486970841885E-002,
3.698500000000000E+008,-3.098128736019135E-002,-2.350517362356186E-002,5.546674728393555E-001,-8.083812594413757E-001,5.541163086891174E-001,-8.052388429641724E-001,-3.302942588925362E-002,-1.202137768268585E-002,
4.898000000000000E+008,-5.259853228926659E-002,-2.017532847821713E-002,2.797164916992188E-001,-9.347869157791138E-001,2.799787223339081E-001,-9.296543002128601E-001,-4.631334543228149E-002,-3.343683783896267E-004,
6.097500000000000E+008,-7.499946653842926E-002,-2.011161064729095E-003,-2.497632615268230E-002,-9.685227274894714E-001,-1.422127895057201E-002,-9.654870033264160E-001,-5.345043540000916E-002,1.981147006154060E-002,
7.297000000000000E+008,-9.163441509008408E-002,3.034338541328907E-002,-3.163628876209259E-001,-9.097421169281006E-001,-3.010737895965576E-001,-9.102280139923096E-001,-5.445542559027672E-002,4.678795859217644E-002,
8.496500000000000E+008,-8.757825195789337E-002,7.412427663803101E-002,-5.574876666069031E-001,-7.526699900627136E-001,-5.589495301246643E-001,-7.739977240562439E-001,-4.563957825303078E-002,7.497220486402512E-002,
9.696000000000000E+008,-5.706086009740830E-002,1.173687949776650E-001,-7.498577237129211E-001,-5.451144576072693E-001,-7.598562240600586E-001,-5.698496699333191E-001,-2.415182068943977E-002,9.871532022953033E-002,
1.089550000000000E+009,-6.323073990643024E-003,1.349387466907501E-001,-8.852514624595642E-001,-3.221109211444855E-001,-8.914545774459839E-001,-3.137861788272858E-001,1.148906070739031E-002,1.165240183472633E-001,
1.209500000000000E+009,3.630739450454712E-002,1.245359778404236E-001,-9.398109316825867E-001,-3.487596660852432E-002,-9.399656057357788E-001,-3.258228302001953E-002,5.271650478243828E-002,1.215523704886437E-001,
1.329450000000000E+009,6.705249100923538E-002,1.109092608094215E-001,-9.043079018592835E-001,2.490097731351852E-001,-9.042413234710693E-001,2.481300979852676E-001,9.564187377691269E-002,1.117337942123413E-001,
1.449400000000000E+009,9.445575624704361E-002,9.499476850032806E-002,-7.871873974800110E-001,5.054212212562561E-001,-7.860817313194275E-001,5.050759315490723E-001,1.354517936706543E-001,8.616374433040619E-002,
1.569350000000000E+009,1.228864863514900E-001,7.489679008722305E-002,-6.001755595207214E-001,7.181987166404724E-001,-5.977594256401062E-001,7.157656550407410E-001,1.664248406887054E-001,4.635880887508392E-002,
1.689300000000000E+009,1.532175689935684E-001,4.353579133749008E-002,-3.549526631832123E-001,8.653793931007385E-001,-3.545729219913483E-001,8.612931966781616E-001,1.821582615375519E-001,-3.634538967162371E-003,
1.809250000000000E+009,1.730198413133621E-001,-4.017388913780451E-003,-7.086567580699921E-002,9.390703439712524E-001,-7.809500396251679E-002,9.281761050224304E-001,1.786491870880127E-001,-5.899300053715706E-002,
1.929200000000000E+009,1.689953953027725E-001,-5.829975381493568E-002,2.101595997810364E-001,9.078718423843384E-001,2.050827145576477E-001,9.042220115661621E-001,1.610060036182404E-001,-1.109248176217079E-001,
2.049150000000000E+009,1.511092633008957E-001,-1.021290048956871E-001,4.821395874023438E-001,7.948153018951416E-001,4.682202637195587E-001,7.951040267944336E-001,1.243648827075958E-001,-1.538974940776825E-001,
2.169100000000000E+009,1.283388286828995E-001,-1.419603973627091E-001,6.860256195068359E-001,6.149372458457947E-001,6.803279519081116E-001,6.159185171127319E-001,7.615344971418381E-002,-1.893052160739899E-001,
2.289050000000000E+009,9.258643537759781E-002,-1.841952651739121E-001,8.325222134590149E-001,3.795963525772095E-001,8.293369412422180E-001,3.834715187549591E-001,1.771293580532074E-002,-2.061451524496079E-001,
2.409000000000000E+009,3.573069348931313E-002,-2.163975387811661E-001,9.061981439590454E-001,1.177302598953247E-001,9.055786132812500E-001,1.180750802159309E-001,-4.777802154421806E-002,-2.032736688852310E-001,
2.528950000000000E+009,-3.675553947687149E-002,-2.278037965297699E-001,8.987678885459900E-001,-1.586342751979828E-001,8.988445401191711E-001,-1.571431756019592E-001,-1.090220957994461E-001,-1.796499341726303E-001,
2.648900000000000E+009,-1.137614473700523E-001,-2.079111039638519E-001,8.101617097854614E-001,-4.181663990020752E-001,8.096066713333130E-001,-4.190326333045960E-001,-1.618237197399139E-001,-1.362692117691040E-001,
2.768850000000000E+009,-1.757983714342117E-001,-1.588171571493149E-001,6.435047388076782E-001,-6.405946016311646E-001,6.460384726524353E-001,-6.413360238075256E-001,-1.990911811590195E-001,-7.772222161293030E-002,
2.888800000000000E+009,-2.119216620922089E-001,-9.425035864114761E-002,4.188887476921082E-001,-8.032299876213074E-001,4.219049811363220E-001,-8.057998418807983E-001,-2.173949927091599E-001,-9.703592397272587E-003,
3.008750000000000E+009,-2.263167500495911E-001,-3.049339354038239E-002,1.635762453079224E-001,-8.874657750129700E-001,1.615715920925140E-001,-8.922260403633118E-001,-2.139025628566742E-001,6.480482220649719E-002,
3.128700000000000E+009,-2.263839095830917E-001,2.755309082567692E-002,-1.107987314462662E-001,-8.933916687965393E-001,-1.121743917465210E-001,-8.976685404777527E-001,-1.875837147235870E-001,1.359753310680389E-001,
3.248650000000000E+009,-2.198573052883148E-001,8.588957041501999E-002,-3.691087961196899E-001,-8.186817765235901E-001,-3.733647167682648E-001,-8.219923377037048E-001,-1.386026591062546E-001,1.976563930511475E-001,
3.368600000000000E+009,-2.003959715366364E-001,1.470446139574051E-001,-5.956422686576843E-001,-6.703790426254273E-001,-6.012379527091980E-001,-6.683240532875061E-001,-7.101187855005264E-002,2.424927651882172E-001,
3.488550000000000E+009,-1.580698639154434E-001,2.079576700925827E-001,-7.644236087799072E-001,-4.595836997032166E-001,-7.699739336967468E-001,-4.574218094348908E-001,1.015034131705761E-002,2.651882767677307E-001,
3.608500000000000E+009,-9.438889473676682E-002,2.545562684535980E-001,-8.653481006622315E-001,-2.103997766971588E-001,-8.654025197029114E-001,-2.072627544403076E-001,9.676422178745270E-002,2.605815827846527E-001,
3.728450000000000E+009,-1.853963732719421E-002,2.776749134063721E-001,-8.841673731803894E-001,5.849048122763634E-002,-8.836227059364319E-001,6.142313033342362E-002,1.802791357040405E-001,2.296072393655777E-001,
3.848400000000000E+009,5.991218984127045E-002,2.808265984058380E-001,-8.253225088119507E-001,3.203163146972656E-001,-8.241358399391174E-001,3.192717134952545E-001,2.522575557231903E-001,1.721264421939850E-001,
3.968350000000000E+009,1.417202502489090E-001,2.656731307506561E-001,-6.849001049995422E-001,5.519230365753174E-001,-6.865522265434265E-001,5.469959974288940E-001,3.041495084762573E-001,9.219373762607575E-002,
4.088300000000000E+009,2.270856797695160E-001,2.283598035573959E-001,-4.855951666831970E-001,7.287410497665405E-001,-4.883093833923340E-001,7.268709540367127E-001,3.297393321990967E-001,-2.649897709488869E-003,
4.208250000000000E+009,3.050970137119293E-001,1.553028970956802E-001,-2.457180619239807E-001,8.371186852455139E-001,-2.481906265020371E-001,8.351943492889404E-001,3.238062858581543E-001,-1.011733040213585E-001,
4.328200000000000E+009,3.531007468700409E-001,4.922232776880264E-002,1.168041490018368E-002,8.689384460449219E-001,1.333670131862164E-002,8.667765259742737E-001,2.869929373264313E-001,-1.970454305410385E-001,
4.448150000000000E+009,3.524698019027710E-001,-6.857708096504211E-002,2.709795832633972E-001,8.275880813598633E-001,2.712194919586182E-001,8.201169967651367E-001,2.209976166486740E-001,-2.763663530349731E-001,
4.568100000000000E+009,3.110910654067993E-001,-1.675743907690048E-001,5.071084499359131E-001,7.071081399917603E-001,5.029971003532410E-001,7.003367543220520E-001,1.307769715785980E-001,-3.338916897773743E-001,
4.688050000000000E+009,2.493636906147003E-001,-2.426238656044006E-001,6.963353753089905E-001,5.217399001121521E-001,6.881312727928162E-001,5.168282985687256E-001,2.743265777826309E-002,-3.606987893581390E-001,
4.808000000000000E+009,1.797420978546143E-001,-3.014889359474182E-001,8.160473704338074E-001,2.852195799350739E-001,8.097425699234009E-001,2.861176133155823E-001,-8.182682096958160E-002,-3.536768555641174E-001,
4.927950000000000E+009,9.486170113086700E-002,-3.495778441429138E-001,8.583974838256836E-001,2.765015885233879E-002,8.576752543449402E-001,2.992408722639084E-002,-1.844637840986252E-001,-3.143148124217987E-001,
5.047900000000000E+009,-1.298200804740191E-002,-3.744534850120544E-001,8.249452114105225E-001,-2.255866676568985E-001,8.262102007865906E-001,-2.276588678359985E-001,-2.709638476371765E-001,-2.430882751941681E-001,
5.167850000000000E+009,-1.314580589532852E-001,-3.564501702785492E-001,7.211933135986328E-001,-4.570516049861908E-001,7.196701169013977E-001,-4.629337191581726E-001,-3.315891921520233E-001,-1.489271521568298E-001,
5.287800000000000E+009,-2.320409715175629E-001,-2.948654294013977E-001,5.548458695411682E-001,-6.528781652450562E-001,5.462096333503723E-001,-6.526512503623962E-001,-3.603180348873138E-001,-3.913691639900208E-002,
5.407750000000000E+009,-2.975151240825653E-001,-2.137269526720047E-001,3.328270912170410E-001,-7.890875935554504E-001,3.259072899818420E-001,-7.837809920310974E-001,-3.546854853630066E-001,7.478535175323486E-002,
5.527700000000000E+009,-3.383784592151642E-001,-1.315691173076630E-001,7.663741707801819E-002,-8.526590466499329E-001,8.140698075294495E-002,-8.493025898933411E-001,-3.149135112762451E-001,1.823505312204361E-001,
5.647650000000000E+009,-3.708963394165039E-001,-4.258000105619431E-002,-1.800537705421448E-001,-8.258495926856995E-001,-1.753468066453934E-001,-8.310476541519165E-001,-2.414472252130508E-001,2.740613818168640E-001,
5.767600000000000E+009,-3.864265680313110E-001,6.728547811508179E-002,-4.147350788116455E-001,-7.290531396865845E-001,-4.209116995334625E-001,-7.372884154319763E-001,-1.420655250549316E-001,3.388190865516663E-001,
5.887550000000000E+009,-3.584896624088287E-001,1.866610944271088E-001,-6.037271618843079E-001,-5.717664957046509E-001,-6.172861456871033E-001,-5.780811905860901E-001,-2.639533206820488E-002,3.711661696434021E-001,
6.007500000000000E+009,-2.815754413604736E-001,2.919399738311768E-001,-7.462165951728821E-001,-3.669016659259796E-001,-7.549142837524414E-001,-3.640052080154419E-001,9.224517643451691E-002,3.657861351966858E-001,
6.127450000000000E+009,-1.786300390958786E-001,3.584830760955811E-001,-8.231916427612305E-001,-1.279249638319016E-001,-8.261716961860657E-001,-1.227077767252922E-001,2.072083652019501E-001,3.227678239345551E-001,
6.247400000000000E+009,-7.005485892295837E-002,3.899352550506592E-001,-8.223783969879150E-001,1.269067525863648E-001,-8.200835585594177E-001,1.272699236869812E-001,3.030302226543427E-001,2.451368421316147E-001,
6.367350000000000E+009,4.059639945626259E-002,3.958924114704132E-001,-7.412161231040955E-001,3.675210177898407E-001,-7.422965168952942E-001,3.638338744640350E-001,3.715467453002930E-001,1.399291008710861E-001,
6.487300000000000E+009,1.515053063631058E-001,3.739755451679230E-001,-5.932984352111816E-001,5.691444277763367E-001,-5.984226465225220E-001,5.656480193138123E-001,4.029344618320465E-001,1.675979793071747E-002,
6.607250000000000E+009,2.575072646141052E-001,3.227088153362274E-001,-3.941303789615631E-001,7.147234082221985E-001,-3.998010754585266E-001,7.168240547180176E-001,3.946563005447388E-001,-1.127423569560051E-001,
6.727200000000000E+009,3.491589426994324E-001,2.357643842697144E-001,-1.672506332397461E-001,7.942978143692017E-001,-1.658684015274048E-001,8.002686500549316E-001,3.442096710205078E-001,-2.332167327404022E-001,
6.847150000000000E+009,4.054219126701355E-001,1.184822022914887E-001,7.337512820959091E-002,8.089818358421326E-001,8.110204339027405E-002,8.087581992149353E-001,2.574832737445831E-001,-3.313691914081574E-001,
6.967100000000000E+009,4.158279001712799E-001,-4.997920244932175E-003,3.131398558616638E-001,7.544189095497131E-001,3.164062500000000E-001,7.432153820991516E-001,1.435083299875259E-001,-3.974622189998627E-001,
7.087050000000000E+009,3.901485502719879E-001,-1.152390390634537E-001,5.297349691390991E-001,6.235448122024536E-001,5.207120180130005E-001,6.148651838302612E-001,1.575125008821487E-002,-4.257153868675232E-001,
7.207000000000000E+009,3.464919626712799E-001,-2.102117389440537E-001,6.934925317764282E-001,4.310712218284607E-001,6.782348155975342E-001,4.317267239093781E-001,-1.147030889987946E-001,-4.121868908405304E-001,
7.326950000000000E+009,2.871886789798737E-001,-2.996028959751129E-001,7.823501229286194E-001,2.002762109041214E-001,7.774361371994019E-001,2.082355916500092E-001,-2.387194782495499E-001,-3.581049144268036E-001,
7.446900000000000E+009,1.983129680156708E-001,-3.808296024799347E-001,7.990911006927490E-001,-3.813866898417473E-002,8.021743893623352E-001,-3.453634679317474E-002,-3.379660248756409E-001,-2.679176032543182E-001,
7.566850000000000E+009,7.552311569452286E-002,-4.356993436813355E-001,7.498167753219605E-001,-2.668258249759674E-001,7.511079311370850E-001,-2.714377939701080E-001,-4.040582776069641E-001,-1.505477726459503E-001,
7.686800000000000E+009,-6.343448907136917E-002,-4.456780552864075E-001,6.402308344841003E-001,-4.747511446475983E-001,6.323849558830261E-001,-4.820074439048767E-001,-4.318087995052338E-001,-2.022773027420044E-002,
7.806750000000000E+009,-1.962626725435257E-001,-4.086662232875824E-001,4.707601070404053E-001,-6.463859677314758E-001,4.587049782276154E-001,-6.458370089530945E-001,-4.205203652381897E-001,1.132930591702461E-001,
7.926700000000000E+009,-3.092184960842133E-001,-3.350370824337006E-001,2.508924007415772E-001,-7.593063712120056E-001,2.449851185083389E-001,-7.497221231460571E-001,-3.681964278221130E-001,2.375599741935730E-001,
8.046650000000000E+009,-3.959600329399109E-001,-2.349752187728882E-001,6.034660153090954E-003,-7.936637997627258E-001,1.032003387808800E-002,-7.853819727897644E-001,-2.809558510780335E-001,3.415164649486542E-001,
8.166600000000000E+009,-4.521992206573486E-001,-1.143580749630928E-001,-2.315905988216400E-001,-7.482552528381348E-001,-2.219325900077820E-001,-7.490555047988892E-001,-1.641879677772522E-001,4.156068265438080E-001,
8.286550000000000E+009,-4.742619097232819E-001,2.171147242188454E-002,-4.362767636775971E-001,-6.354553103446960E-001,-4.313882887363434E-001,-6.464492678642273E-001,-3.096755221486092E-002,4.504103660583496E-001,
8.406500000000000E+009,-4.538645744323731E-001,1.625948399305344E-001,-5.963553190231323E-001,-4.771608710289002E-001,-6.013126969337463E-001,-4.859004318714142E-001,1.086074337363243E-001,4.448253810405731E-001,
8.526450000000000E+009,-3.882447779178619E-001,2.939728200435638E-001,-7.067871689796448E-001,-2.823150455951691E-001,-7.137411236763001E-001,-2.835184931755066E-001,2.408539056777954E-001,3.977720737457275E-001,
8.646400000000000E+009,-2.841413915157318E-001,3.985059857368469E-001,-7.578002214431763E-001,-6.047564744949341E-002,-7.604616284370422E-001,-5.903383344411850E-002,3.548665940761566E-001,3.124450147151947E-001,
8.766350000000000E+009,-1.545916199684143E-001,4.647452533245087E-001,-7.367137670516968E-001,1.691489517688751E-001,-7.382512092590332E-001,1.669137179851532E-001,4.382646381855011E-001,1.956201940774918E-001,
8.886300000000000E+009,-1.570133492350578E-002,4.914411604404450E-001,-6.456339955329895E-001,3.773980438709259E-001,-6.517189145088196E-001,3.741603493690491E-001,4.849375188350678E-001,5.637912452220917E-002,
9.006250000000000E+009,1.233993694186211E-001,4.807694852352142E-001,-4.998054504394531E-001,5.423974990844727E-001,-5.100745558738709E-001,5.459837317466736E-001,4.863308072090149E-001,-9.254443645477295E-002,
9.126200000000000E+009,2.557796537876129E-001,4.354914724826813E-001,-3.206130862236023E-001,6.575001478195190E-001,-3.250951468944550E-001,6.692005395889282E-001,4.400744438171387E-001,-2.364728897809982E-001,
9.246150000000000E+009,3.729734420776367E-001,3.536944389343262E-001,-1.201488152146339E-001,7.197539210319519E-001,-1.139923483133316E-001,7.331475615501404E-001,3.505915701389313E-001,-3.594666421413422E-001,
9.366100000000000E+009,4.629010558128357E-001,2.382567524909973E-001,9.293898195028305E-002,7.278909683227539E-001,1.064732819795609E-001,7.319194674491882E-001,2.280633449554443E-001,-4.479756951332092E-001,
9.486050000000000E+009,5.131943225860596E-001,1.009388864040375E-001,3.043031990528107E-001,6.719865202903748E-001,3.169254660606384E-001,6.665034890174866E-001,8.350631594657898E-002,-4.972241520881653E-001,
9.606000000000000E+009,5.201909542083740E-001,-4.237551987171173E-002,4.926302731037140E-001,5.524041652679443E-001,4.982880949974060E-001,5.440307259559631E-001,-7.177695631980896E-002,-4.995519220829010E-001,
9.725950000000000E+009,4.899196028709412E-001,-1.794722378253937E-001,6.356938481330872E-001,3.790801167488098E-001,6.365951299667358E-001,3.727059960365295E-001,-2.224398106336594E-001,-4.520405530929565E-001,
9.845900000000000E+009,4.261499345302582E-001,-3.055104911327362E-001,7.156800031661987E-001,1.723447740077972E-001,7.179720997810364E-001,1.676996648311615E-001,-3.503938317298889E-001,-3.573164641857147E-001,
9.965850000000000E+009,3.283309936523438E-001,-4.150030612945557E-001,7.306547760963440E-001,-4.516709595918655E-002,7.343769669532776E-001,-4.886243119835854E-002,-4.401590526103973E-001,-2.254980206489563E-001,
1.008580000000000E+010,1.972832083702087E-001,-4.947807192802429E-001,6.866483688354492E-001,-2.533181905746460E-001,6.887850165367127E-001,-2.622971534729004E-001,-4.830632805824280E-001,-7.274844497442246E-002,
1.020575000000000E+010,4.488459974527359E-002,-5.286669731140137E-001,5.890268683433533E-001,-4.456920027732849E-001,5.832559466362000E-001,-4.545965492725372E-001,-4.763047695159912E-001,8.697231113910675E-002,
1.032570000000000E+010,-1.074212640523911E-001,-5.107172131538391E-001,4.348173439502716E-001,-6.096298694610596E-001,4.243505299091339E-001,-6.100556254386902E-001,-4.178196191787720E-001,2.371209263801575E-001,
1.044565000000000E+010,-2.394785881042481E-001,-4.493958353996277E-001,2.280657440423966E-001,-7.197341918945313E-001,2.208932787179947E-001,-7.116701006889343E-001,-3.112718164920807E-001,3.583379387855530E-001,
1.056560000000000E+010,-3.419281840324402E-001,-3.608158230781555E-001,-5.626853089779615E-003,-7.554809451103210E-001,-3.295375499874353E-003,-7.468703985214233E-001,-1.725432425737381E-001,4.383798837661743E-001,
1.068555000000000E+010,-4.166477024555206E-001,-2.552937865257263E-001,-2.358059734106064E-001,-7.132989764213562E-001,-2.277626842260361E-001,-7.105799317359924E-001,-1.686772145330906E-002,4.678665995597839E-001,
1.080550000000000E+010,-4.659870564937592E-001,-1.372392773628235E-001,-4.373950958251953E-001,-6.039907932281494E-001,-4.313129186630249E-001,-6.080158948898315E-001,1.388624608516693E-001,4.472232460975647E-001,
1.092545000000000E+010,-4.868101179599762E-001,-5.103873088955879E-003,-5.934582352638245E-001,-4.441954791545868E-001,-5.936697125434876E-001,-4.483825862407684E-001,2.783069908618927E-001,3.778669834136963E-001,
1.104540000000000E+010,-4.686869978904724E-001,1.344206035137177E-001,-6.976057291030884E-001,-2.472676932811737E-001,-7.000641822814941E-001,-2.463005185127258E-001,3.878283798694611E-001,2.676374614238739E-001,
