% Version 1.00
%
%freq[Hz],re:Trc1_S11,im:Trc1_S11,re:Trc2_S21,im:Trc2_S21,re:Trc3_S12,im:Trc3_S12,re:Trc4_S22,im:Trc4_S22,
1.000000000000000E+007,-2.694154344499111E-002,2.539291977882385E-002,1.020908832550049E+000,-5.136497691273689E-002,1.049119710922241E+000,-1.221727430820465E-001,-5.241401493549347E-002,1.814762689173222E-002,
1.299500000000000E+008,-9.249209426343441E-003,-2.327425219118595E-002,9.179013967514038E-001,-3.576350212097168E-001,9.177637696266174E-001,-3.632122278213501E-001,-6.936194375157356E-003,-2.801034413278103E-002,
2.499000000000000E+008,-3.753296285867691E-002,-3.303751349449158E-002,7.458912134170532E-001,-6.408247351646423E-001,7.456997036933899E-001,-6.427767872810364E-001,-2.841535769402981E-002,-4.139069840312004E-002,
3.698500000000000E+008,-6.867067515850067E-002,-2.586289495229721E-002,4.886105358600617E-001,-8.472418785095215E-001,4.848752319812775E-001,-8.467127084732056E-001,-5.745132640004158E-002,-4.546595364809036E-002,
4.898000000000000E+008,-9.832146018743515E-002,9.507809299975634E-004,1.782986670732498E-001,-9.542448520660400E-001,1.796935945749283E-001,-9.505979418754578E-001,-8.884436637163162E-002,-3.832153230905533E-002,
6.097500000000000E+008,-1.146185547113419E-001,4.803818091750145E-002,-1.534085571765900E-001,-9.474709630012512E-001,-1.396207213401794E-001,-9.504300355911255E-001,-1.184756830334663E-001,-1.475186459720135E-002,
7.297000000000000E+008,-1.104331910610199E-001,1.045951172709465E-001,-4.495084285736084E-001,-8.336403965950012E-001,-4.376391470432282E-001,-8.441720604896545E-001,-1.412100791931152E-001,2.387207560241222E-002,
8.496500000000000E+008,-7.627900689840317E-002,1.639389693737030E-001,-6.685447692871094E-001,-6.269404888153076E-001,-6.836561560630798E-001,-6.484497785568237E-001,-1.498874276876450E-001,7.377156615257263E-002,
9.696000000000000E+008,-4.498425871133804E-003,2.121227979660034E-001,-8.226856589317322E-001,-3.791969716548920E-001,-8.486430644989014E-001,-3.889240920543671E-001,-1.413184404373169E-001,1.278844922780991E-001,
1.089550000000000E+009,9.651323407888413E-002,2.125483006238937E-001,-9.184774756431580E-001,-1.040225923061371E-001,-9.173274636268616E-001,-8.917235583066940E-002,-1.104858368635178E-001,1.767138540744782E-001,
1.209500000000000E+009,1.752350777387619E-001,1.648758053779602E-001,-8.888841271400452E-001,2.080681622028351E-001,-8.856229186058044E-001,2.094632834196091E-001,-6.410413980484009E-002,2.190097719430924E-001,
1.329450000000000E+009,2.361107617616653E-001,9.780181944370270E-002,-7.630330920219421E-001,4.779769778251648E-001,-7.619166374206543E-001,4.778827130794525E-001,-3.061255672946572E-003,2.481183558702469E-001,
1.449400000000000E+009,2.752436399459839E-001,3.382856957614422E-003,-5.612085461616516E-001,6.923546195030212E-001,-5.602005124092102E-001,6.892931461334229E-001,6.627699732780457E-002,2.584940791130066E-001,
1.569350000000000E+009,2.731847763061523E-001,-1.085213869810104E-001,-3.019424080848694E-001,8.297011852264404E-001,-3.055209517478943E-001,8.230496644973755E-001,1.399161517620087E-001,2.470312118530273E-001,
1.689300000000000E+009,2.218693047761917E-001,-2.157099694013596E-001,-1.400581281632185E-002,8.664698600769043E-001,-2.525971271097660E-002,8.656586408615112E-001,2.108555138111115E-001,2.156601101160049E-001,
1.809250000000000E+009,1.291589438915253E-001,-2.958259284496307E-001,2.699290215969086E-001,8.140029311180115E-001,2.533859610557556E-001,8.174655437469482E-001,2.709485292434692E-001,1.654448062181473E-001,
1.929200000000000E+009,1.235081441700459E-002,-3.314860165119171E-001,4.959397017955780E-001,6.739816665649414E-001,4.936109483242035E-001,6.861382722854614E-001,3.190186023712158E-001,9.447117894887924E-002,
2.049150000000000E+009,-1.097513735294342E-001,-3.205519616603851E-001,6.805912256240845E-001,4.684991836547852E-001,6.775862574577332E-001,4.811770319938660E-001,3.502805233001709E-001,1.344380527734757E-002,
2.169100000000000E+009,-2.186516225337982E-001,-2.699309885501862E-001,7.810850143432617E-001,2.333610057830811E-001,7.850883603096008E-001,2.372489273548126E-001,3.560113310813904E-001,-7.831208407878876E-002,
2.289050000000000E+009,-3.061439394950867E-001,-1.822318285703659E-001,8.034555912017822E-001,-2.722652815282345E-002,8.061770200729370E-001,-2.430403605103493E-002,3.382295370101929E-001,-1.721312105655670E-001,
2.409000000000000E+009,-3.630831539630890E-001,-6.587710976600647E-002,7.453625798225403E-001,-2.766920924186707E-001,7.449550032615662E-001,-2.759884595870972E-001,2.942821681499481E-001,-2.605420053005219E-001,
2.528950000000000E+009,-3.764142990112305E-001,7.108807563781738E-002,6.088409423828125E-001,-4.923642575740814E-001,6.102710366249085E-001,-4.899407327175140E-001,2.268532514572144E-001,-3.377969264984131E-001,
2.648900000000000E+009,-3.362392485141754E-001,2.127116620540619E-001,4.155109226703644E-001,-6.474299430847168E-001,4.163550436496735E-001,-6.477804780006409E-001,1.373847424983978E-001,-3.955380022525787E-001,
2.768850000000000E+009,-2.410566359758377E-001,3.330329656600952E-001,1.883664131164551E-001,-7.317525148391724E-001,1.874925047159195E-001,-7.348788380622864E-001,3.296432271599770E-002,-4.282893240451813E-001,
2.888800000000000E+009,-1.040889695286751E-001,4.098165631294251E-001,-4.711427167057991E-002,-7.472543716430664E-001,-5.309283733367920E-002,-7.433237433433533E-001,-7.887646555900574E-002,-4.311869442462921E-001,
3.008750000000000E+009,5.379045754671097E-002,4.322667419910431E-001,-2.746807336807251E-001,-6.881783604621887E-001,-2.805203199386597E-001,-6.787428259849548E-001,-1.917061060667038E-001,-4.047486484050751E-001,
3.128700000000000E+009,2.094760984182358E-001,3.955026566982269E-001,-4.781556129455566E-001,-5.635035634040833E-001,-4.714530408382416E-001,-5.479167103767395E-001,-2.946435809135437E-001,-3.495735228061676E-001,
3.248650000000000E+009,3.442044258117676E-001,3.026760816574097E-001,-6.214565038681030E-001,-3.766092061996460E-001,-6.106854081153870E-001,-3.673918247222900E-001,-3.808995485305786E-001,-2.633837163448334E-001,
3.368600000000000E+009,4.385804831981659E-001,1.655600070953369E-001,-6.972103714942932E-001,-1.538763493299484E-001,-6.839535832405090E-001,-1.546980738639832E-001,-4.436239004135132E-001,-1.558008491992950E-001,
3.488550000000000E+009,4.763455390930176E-001,1.287970226258040E-004,-6.925832629203796E-001,6.790325045585632E-002,-6.887919306755066E-001,6.558331847190857E-002,-4.721946716308594E-001,-3.660436347126961E-002,
3.608500000000000E+009,4.500757753849030E-001,-1.718949675559998E-001,-6.247677206993103E-001,2.724784910678864E-001,-6.259768605232239E-001,2.719804346561432E-001,-4.700899422168732E-001,8.778823167085648E-002,
3.728450000000000E+009,3.603612482547760E-001,-3.239301443099976E-001,-5.031260848045349E-001,4.427300691604614E-001,-5.019955039024353E-001,4.468470513820648E-001,-4.354067444801331E-001,2.083639949560165E-001,
3.848400000000000E+009,2.196521610021591E-001,-4.310086965560913E-001,-3.380149900913239E-001,5.692893862724304E-001,-3.340176939964294E-001,5.746352672576904E-001,-3.703226447105408E-001,3.172136247158051E-001,
3.968350000000000E+009,5.143428221344948E-002,-4.787922501564026E-001,-1.394641399383545E-001,6.403539180755615E-001,-1.378961652517319E-001,6.402453780174255E-001,-2.792895734310150E-001,4.052206873893738E-001,
4.088300000000000E+009,-1.199069246649742E-001,-4.653539657592773E-001,6.858421117067337E-002,6.425922513008118E-001,6.934991478919983E-002,6.415277719497681E-001,-1.672583073377609E-001,4.678077697753906E-001,
4.208250000000000E+009,-2.754358351230621E-001,-3.943955600261688E-001,2.652963399887085E-001,5.756527781486511E-001,2.618118822574616E-001,5.809038281440735E-001,-4.244545847177506E-002,4.998910725116730E-001,
4.328200000000000E+009,-3.988897204399109E-001,-2.761873006820679E-001,4.205082654953003E-001,4.539934098720551E-001,4.210888445377350E-001,4.616131782531738E-001,8.733935654163361E-002,5.005471110343933E-001,
4.448150000000000E+009,-4.736228883266449E-001,-1.186448633670807E-001,5.279827117919922E-001,2.958838045597076E-001,5.366997718811035E-001,3.033883273601532E-001,2.130058109760284E-001,4.676336646080017E-001,
4.568100000000000E+009,-4.887688159942627E-001,5.723933130502701E-002,5.824996232986450E-001,1.199754849076271E-001,5.928850769996643E-001,1.218808591365814E-001,3.282293975353241E-001,4.028114676475525E-001,
4.688050000000000E+009,-4.387858510017395E-001,2.242410033941269E-001,5.851306915283203E-001,-6.203403323888779E-002,5.919129848480225E-001,-6.850115209817886E-002,4.238383471965790E-001,3.115671575069428E-001,
4.808000000000000E+009,-3.356489241123200E-001,3.637863397598267E-001,5.323102474212647E-001,-2.399439811706543E-001,5.341917872428894E-001,-2.442501336336136E-001,4.935999512672424E-001,1.975254863500595E-001,
4.927950000000000E+009,-1.925130039453507E-001,4.617354869842529E-001,4.251264333724976E-001,-3.905721306800842E-001,4.232695102691650E-001,-3.900917470455170E-001,5.332047939300537E-001,6.875872611999512E-002,
5.047900000000000E+009,-1.964197866618633E-002,5.099977254867554E-001,2.733837068080902E-001,-4.964668154716492E-001,2.775301635265350E-001,-4.932720959186554E-001,5.383712053298950E-001,-6.606215238571167E-002,
5.167850000000000E+009,1.673443913459778E-001,4.949729144573212E-001,1.030341163277626E-001,-5.450351834297180E-001,1.114130467176437E-001,-5.452812314033508E-001,5.099935531616211E-001,-1.988794207572937E-001,
5.287800000000000E+009,3.432013690471649E-001,4.076786339282990E-001,-6.521350145339966E-002,-5.376281738281250E-001,-6.048560142517090E-002,-5.429038405418396E-001,4.496648311614990E-001,-3.205190598964691E-001,
5.407750000000000E+009,4.747512340545654E-001,2.559090256690979E-001,-2.197271585464478E-001,-4.861570298671722E-001,-2.204185426235199E-001,-4.903362095355988E-001,3.602003753185272E-001,-4.235528707504273E-001,
5.527700000000000E+009,5.361844897270203E-001,6.802365183830261E-002,-3.519352078437805E-001,-3.942251503467560E-001,-3.550410866737366E-001,-3.930627405643463E-001,2.474125325679779E-001,-5.011759400367737E-001,
5.647650000000000E+009,5.254488587379456E-001,-1.249694228172302E-001,-4.530961811542511E-001,-2.655542492866516E-001,-4.511417150497437E-001,-2.605857253074646E-001,1.196721568703651E-001,-5.484387874603272E-001,
5.767600000000000E+009,4.492479562759399E-001,-2.996029853820801E-001,-5.077964067459106E-001,-1.110696867108345E-001,-5.009881258010864E-001,-1.076352149248123E-001,-1.440547592937946E-002,-5.628418922424316E-001,
5.887550000000000E+009,3.183140754699707E-001,-4.376786053180695E-001,-5.074179172515869E-001,5.412628501653671E-002,-5.018599033355713E-001,4.919250309467316E-002,-1.490118056535721E-001,-5.440498590469360E-001,
6.007500000000000E+009,1.466227173805237E-001,-5.211210250854492E-001,-4.566990435123444E-001,2.040155529975891E-001,-4.553324580192566E-001,1.970054805278778E-001,-2.757608592510223E-001,-4.941715896129608E-001,
6.127450000000000E+009,-4.557589814066887E-002,-5.387669205665588E-001,-3.642161190509796E-001,3.244861364364624E-001,-3.675217032432556E-001,3.215776383876801E-001,-3.867126107215881E-001,-4.142773747444153E-001,
6.247400000000000E+009,-2.300703525543213E-001,-4.872716069221497E-001,-2.472081184387207E-001,4.106640815734863E-001,-2.487284392118454E-001,4.117051661014557E-001,-4.750258922576904E-001,-3.099594414234161E-001,
6.367350000000000E+009,-3.832542300224304E-001,-3.750821053981781E-001,-1.124948263168335E-001,4.602560997009277E-001,-1.101519614458084E-001,4.610581994056702E-001,-5.358190536499023E-001,-1.875963211059570E-001,
6.487300000000000E+009,-4.868253767490387E-001,-2.192964106798172E-001,3.092638589441776E-002,4.684831798076630E-001,3.474088758230209E-002,4.665130078792572E-001,-5.652552843093872E-001,-5.401670932769775E-002,
6.607250000000000E+009,-5.309307575225830E-001,-4.022477567195892E-002,1.714654117822647E-001,4.329575300216675E-001,1.729885637760162E-001,4.272222816944122E-001,-5.618918538093567E-001,8.303218334913254E-002,
6.727200000000000E+009,-5.134057402610779E-001,1.397705972194672E-001,2.936359047889710E-001,3.534413874149323E-001,2.909007370471954E-001,3.493608534336090E-001,-5.250228643417358E-001,2.157308757305145E-001,
6.847150000000000E+009,-4.385342001914978E-001,3.039085865020752E-001,3.803986907005310E-001,2.397586554288864E-001,3.767897784709930E-001,2.411165684461594E-001,-4.567149579524994E-001,3.351208567619324E-001,
6.967100000000000E+009,-3.123113811016083E-001,4.346194267272949E-001,4.245775043964386E-001,1.107133179903030E-001,4.248875677585602E-001,1.145991906523705E-001,-3.624690473079681E-001,4.346208572387695E-001,
7.087050000000000E+009,-1.479256153106690E-001,5.155655741691589E-001,4.293815493583679E-001,-1.933273300528526E-002,4.344252347946167E-001,-1.760021597146988E-002,-2.455282658338547E-001,5.085287094116211E-001,
7.207000000000000E+009,3.561343252658844E-002,5.362918972969055E-001,3.991256654262543E-001,-1.432587802410126E-001,4.030901789665222E-001,-1.450009495019913E-001,-1.147355288267136E-001,5.517981648445129E-001,
7.326950000000000E+009,2.185387760400772E-001,4.917902350425720E-001,3.361659944057465E-001,-2.532037198543549E-001,3.381662666797638E-001,-2.571660280227661E-001,2.143421024084091E-002,5.623626708984375E-001,
7.446900000000000E+009,3.739541769027710E-001,3.869405984878540E-001,2.431746572256088E-001,-3.399895131587982E-001,2.425596266984940E-001,-3.426266312599182E-001,1.554282009601593E-001,5.395202040672302E-001,
7.566850000000000E+009,4.855627119541168E-001,2.329611331224442E-001,1.270029544830322E-001,-3.945680558681488E-001,1.261349767446518E-001,-3.959423601627350E-001,2.799040377140045E-001,4.862165153026581E-001,
7.686800000000000E+009,5.372568964958191E-001,4.842309653759003E-002,9.909134823828936E-004,-4.098289310932159E-001,4.589734016917646E-004,-4.115085303783417E-001,3.880892693996429E-001,4.040785133838654E-001,
7.806750000000000E+009,5.203872323036194E-001,-1.447098702192307E-001,-1.209908202290535E-001,-3.865692317485809E-001,-1.228917166590691E-001,-3.883965313434601E-001,4.725556969642639E-001,3.004738986492157E-001,
7.926700000000000E+009,4.344223141670227E-001,-3.203880786895752E-001,-2.285116463899612E-001,-3.288944661617279E-001,-2.319639027118683E-001,-3.294406533241272E-001,5.294454097747803E-001,1.789624243974686E-001,
8.046650000000000E+009,2.882925868034363E-001,-4.522678852081299E-001,-3.152379691600800E-001,-2.426775544881821E-001,-3.176839947700501E-001,-2.413396686315537E-001,5.563943982124329E-001,4.766967147588730E-002,
8.166600000000000E+009,1.052241623401642E-001,-5.174984931945801E-001,-3.715476691722870E-001,-1.343434303998947E-001,-3.711372017860413E-001,-1.323754340410233E-001,5.513787865638733E-001,-8.492242544889450E-002,
8.286550000000000E+009,-8.316783607006073E-002,-5.109159946441650E-001,-3.904457390308380E-001,-1.446013338863850E-002,-3.901755809783936E-001,-1.425598561763763E-002,5.156707167625427E-001,-2.130107730627060E-001,
8.406500000000000E+009,-2.500099837779999E-001,-4.420025348663330E-001,-3.732034265995026E-001,1.044041067361832E-001,-3.725602626800537E-001,1.039777621626854E-001,4.514419436454773E-001,-3.286893665790558E-001,
8.526450000000000E+009,-3.840614855289459E-001,-3.261753618717194E-001,-3.207321763038635E-001,2.113650590181351E-001,-3.196230530738831E-001,2.105015069246292E-001,3.611100912094116E-001,-4.253478348255158E-001,
8.646400000000000E+009,-4.749499857425690E-001,-1.708131879568100E-001,-2.375290840864182E-001,2.964240014553070E-001,-2.376057505607605E-001,2.940998375415802E-001,2.504142522811890E-001,-4.982554316520691E-001,
8.766350000000000E+009,-5.074934959411621E-001,1.108857244253159E-002,-1.326148957014084E-001,3.496160507202148E-001,-1.353549361228943E-001,3.480504751205444E-001,1.249215006828308E-001,-5.425062179565430E-001,
8.886300000000000E+009,-4.701328873634338E-001,1.950777769088745E-001,-1.941374130547047E-002,3.667238950729370E-001,-2.253485843539238E-002,3.678872287273407E-001,-7.185894995927811E-003,-5.554520487785339E-001,
9.006250000000000E+009,-3.683829605579376E-001,3.494439721107483E-001,8.973341435194016E-002,3.484682440757752E-001,8.908076584339142E-002,3.522254228591919E-001,-1.394972354173660E-001,-5.356512069702148E-001,
9.126200000000000E+009,-2.265476882457733E-001,4.530271887779236E-001,1.855882853269577E-001,3.014970719814301E-001,1.883912682533264E-001,3.045256435871124E-001,-2.629807591438294E-001,-4.841825067996979E-001,
9.246150000000000E+009,-6.530772894620895E-002,5.046061277389526E-001,2.626557350158691E-001,2.312351465225220E-001,2.677797377109528E-001,2.312606573104858E-001,-3.700997531414032E-001,-4.039202332496643E-001,
9.366100000000000E+009,1.028625443577766E-001,5.057995319366455E-001,3.178231120109558E-001,1.422034800052643E-001,3.211024701595306E-001,1.388521641492844E-001,-4.531174898147583E-001,-3.008289337158203E-001,
9.486050000000000E+009,2.667090296745300E-001,4.544818699359894E-001,3.436096608638763E-001,3.919853270053864E-002,3.444818258285523E-001,3.484215214848518E-002,-5.100545883178711E-001,-1.804260462522507E-001,
9.606000000000000E+009,4.085873365402222E-001,3.490081429481506E-001,3.353746533393860E-001,-6.718681752681732E-002,3.349975943565369E-001,-6.988664716482163E-002,-5.350430011749268E-001,-4.901801794767380E-002,
9.725950000000000E+009,5.091885328292847E-001,1.955933868885040E-001,2.945914864540100E-001,-1.633215844631195E-001,2.942377030849457E-001,-1.656039506196976E-001,-5.269486308097839E-001,8.339297771453857E-002,
9.845900000000000E+009,5.500213503837585E-001,1.486249454319477E-002,2.283129692077637E-001,-2.395812869071960E-001,2.280714213848114E-001,-2.427289634943008E-001,-4.863149523735046E-001,2.094480544328690E-001,
9.965850000000000E+009,5.248075723648071E-001,-1.705999225378037E-001,1.448551267385483E-001,-2.920553088188171E-001,1.443219333887100E-001,-2.955498695373535E-001,-4.164049327373505E-001,3.219471275806427E-001,
1.008580000000000E+010,4.378202855587006E-001,-3.357072770595551E-001,5.300886183977127E-002,-3.183619678020477E-001,4.959772154688835E-002,-3.218872547149658E-001,-3.212652504444122E-001,4.124908149242401E-001,
1.020575000000000E+010,3.013077676296234E-001,-4.603286087512970E-001,-4.297736659646034E-002,-3.198511600494385E-001,-4.806523397564888E-002,-3.195101916790009E-001,-2.069207578897476E-001,4.789499342441559E-001,
1.032570000000000E+010,1.314595043659210E-001,-5.311555266380310E-001,-1.382098346948624E-001,-2.927215695381165E-001,-1.404087990522385E-001,-2.884803414344788E-001,-8.091709762811661E-002,5.138391852378845E-001,
1.044565000000000E+010,-5.076002702116966E-002,-5.396391153335571E-001,-2.215306609869003E-001,-2.352654337882996E-001,-2.196381241083145E-001,-2.309526801109314E-001,5.033132806420326E-002,5.164874196052551E-001,
1.056560000000000E+010,-2.218896150588989E-001,-4.861131608486176E-001,-2.809502780437470E-001,-1.538581699132919E-001,-2.772805988788605E-001,-1.532874852418900E-001,1.772202551364899E-001,4.887897968292236E-001,
1.068555000000000E+010,-3.624051213264465E-001,-3.792959451675415E-001,-3.104798793792725E-001,-5.923708528280258E-002,-3.081934750080109E-001,-6.198527291417122E-002,2.933434545993805E-001,4.316784441471100E-001,
1.080550000000000E+010,-4.586588144302368E-001,-2.345575839281082E-001,-3.092424273490906E-001,3.672759234905243E-002,-3.097605407238007E-001,3.419691324234009E-002,3.924177587032318E-001,3.481508791446686E-001,
1.092545000000000E+010,-5.023077130317688E-001,-6.725605577230454E-002,-2.810062766075134E-001,1.254233270883560E-001,-2.823843359947205E-001,1.254415512084961E-001,4.688811004161835E-001,2.435128539800644E-001,
1.104540000000000E+010,-4.881543517112732E-001,1.071895062923431E-001,-2.294492125511169E-001,2.025036960840225E-001,-2.289581596851349E-001,2.037464976310730E-001,5.182263851165772E-001,1.235908791422844E-001,
