% Version 1.00
%
%freq[Hz],re:Trc1_S11,im:Trc1_S11,re:Trc2_S21,im:Trc2_S21,re:Trc3_S12,im:Trc3_S12,re:Trc4_S22,im:Trc4_S22,
1.000000000000000E+007,-2.822233177721500E-002,2.597135957330465E-003,9.568514823913574E-001,-8.193778991699219E-002,1.054177880287170E+000,-1.216828078031540E-002,-5.021887272596359E-002,-1.997702941298485E-002,
3.399000000000000E+007,-4.033227637410164E-002,-1.377855520695448E-002,9.515280723571777E-001,-1.436303108930588E-001,9.533082246780396E-001,-1.294959783554077E-001,-3.852939233183861E-002,-3.082724846899509E-002,
5.798000000000000E+007,-4.993227124214172E-002,-3.211919590830803E-002,9.234172105789185E-001,-2.176545113325119E-001,9.254849553108215E-001,-1.980509161949158E-001,-4.922433942556381E-002,-3.306494653224945E-002,
8.197000000000000E+007,-5.823535472154617E-002,-4.382054507732391E-002,9.065156579017639E-001,-2.857603430747986E-001,9.141394495964050E-001,-2.838155925273895E-001,-5.089741200208664E-002,-4.102977365255356E-002,
1.059600000000000E+008,-6.900928169488907E-002,-5.687564611434937E-002,8.744746446609497E-001,-3.565316796302795E-001,8.715268969535828E-001,-3.635209500789642E-001,-5.863685905933380E-002,-5.740375816822052E-002,
1.299500000000000E+008,-7.852989435195923E-002,-6.197987124323845E-002,8.294410109519959E-001,-4.369863867759705E-001,8.353718519210815E-001,-4.328643083572388E-001,-7.771193236112595E-002,-6.924811750650406E-002,
1.539400000000000E+008,-8.965831249952316E-002,-6.180471554398537E-002,7.901089787483215E-001,-5.001618266105652E-001,7.896475195884705E-001,-5.022352337837219E-001,-1.003486290574074E-001,-6.775769591331482E-002,
1.779300000000000E+008,-1.080749779939652E-001,-5.592935904860497E-002,7.389780879020691E-001,-5.650030970573425E-001,7.443518042564392E-001,-5.669056177139282E-001,-1.137382164597511E-001,-6.115304306149483E-002,
2.019200000000000E+008,-1.272173970937729E-001,-5.310033261775971E-002,6.870269775390625E-001,-6.270107030868530E-001,6.890105605125427E-001,-6.211441159248352E-001,-1.207215115427971E-001,-5.868810787796974E-002,
2.259100000000000E+008,-1.480214595794678E-001,-4.793491214513779E-002,6.299248933792114E-001,-6.730163097381592E-001,6.262228488922119E-001,-6.728827953338623E-001,-1.371024698019028E-001,-6.534665822982788E-002,
2.499000000000000E+008,-1.642182767391205E-001,-4.589447379112244E-002,5.665127038955689E-001,-7.152985930442810E-001,5.647212862968445E-001,-7.182065248489380E-001,-1.629243642091751E-001,-5.950953066349030E-002,
2.738900000000000E+008,-1.768531352281570E-001,-3.764149546623230E-002,5.011576414108276E-001,-7.568750381469727E-001,5.047770738601685E-001,-7.601429224014282E-001,-1.827501654624939E-001,-4.071705788373947E-002,
2.978800000000000E+008,-1.850852072238922E-001,-2.352105081081390E-002,4.331991076469421E-001,-7.910331487655640E-001,4.373716115951538E-001,-7.932880520820618E-001,-1.878935992717743E-001,-2.304118312895298E-002,
3.218700000000000E+008,-1.949012726545334E-001,-3.758423961699009E-003,3.658678829669952E-001,-8.255096077919006E-001,3.694267868995667E-001,-8.257932066917419E-001,-1.927404999732971E-001,-1.681219413876534E-002,
3.458600000000000E+008,-2.061014324426651E-001,1.883099228143692E-002,2.945297956466675E-001,-8.443729877471924E-001,2.906348705291748E-001,-8.449454903602600E-001,-2.120310217142105E-001,-1.086978893727064E-002,
3.698500000000000E+008,-2.201626896858215E-001,3.869421780109406E-002,2.264401912689209E-001,-8.635190725326538E-001,2.214362323284149E-001,-8.576717376708984E-001,-2.326154559850693E-001,1.100560650229454E-002,
3.938400000000000E+008,-2.329001277685165E-001,5.746713653206825E-002,1.538182199001312E-001,-8.699313402175903E-001,1.531900763511658E-001,-8.663915395736694E-001,-2.408529520034790E-001,4.044418409466744E-002,
4.178300000000000E+008,-2.374803125858307E-001,7.475454360246658E-002,8.343019336462021E-002,-8.718397021293640E-001,8.240191638469696E-002,-8.735743761062622E-001,-2.340575754642487E-001,6.368411332368851E-002,
4.418200000000000E+008,-2.361139357089996E-001,9.624262154102325E-002,8.510474115610123E-003,-8.716178536415100E-001,9.855408221483231E-003,-8.747553825378418E-001,-2.344529628753662E-001,7.449531555175781E-002,
4.658100000000000E+008,-2.282447069883347E-001,1.209233850240707E-001,-6.277682632207871E-002,-8.655672073364258E-001,-6.237849593162537E-002,-8.643236756324768E-001,-2.469300031661987E-001,8.996803313493729E-002,
4.898000000000000E+008,-2.235103398561478E-001,1.479655653238297E-001,-1.277352422475815E-001,-8.538252711296082E-001,-1.276807785034180E-001,-8.490151166915894E-001,-2.576155364513397E-001,1.202315986156464E-001,
5.137900000000000E+008,-2.210346609354019E-001,1.787572354078293E-001,-1.939200758934021E-001,-8.368693590164185E-001,-1.922044754028320E-001,-8.315279483795166E-001,-2.488244026899338E-001,1.563995033502579E-001,
5.377800000000000E+008,-2.177596092224121E-001,2.057554721832275E-001,-2.537908256053925E-001,-8.096681833267212E-001,-2.579240798950195E-001,-8.116225600242615E-001,-2.311574965715408E-001,1.785402446985245E-001,
5.617700000000000E+008,-2.092538923025131E-001,2.271966785192490E-001,-3.185629248619080E-001,-7.827969789505005E-001,-3.217882812023163E-001,-7.839128375053406E-001,-2.229043841362000E-001,1.882358193397522E-001,
5.857600000000000E+008,-1.940616071224213E-001,2.435596138238907E-001,-3.816279768943787E-001,-7.450632452964783E-001,-3.807198703289032E-001,-7.458327412605286E-001,-2.259507030248642E-001,2.061960250139237E-001,
6.097500000000000E+008,-1.731291115283966E-001,2.615303695201874E-001,-4.394360482692719E-001,-7.162800431251526E-001,-4.300018548965454E-001,-7.084745168685913E-001,-2.216108441352844E-001,2.416552752256393E-001,
6.337400000000000E+008,-1.477649509906769E-001,2.832839190959930E-001,-4.930146336555481E-001,-6.756123304367065E-001,-4.784989058971405E-001,-6.748029589653015E-001,-1.986501216888428E-001,2.756478488445282E-001,
6.577300000000000E+008,-1.260080933570862E-001,3.107554018497467E-001,-5.342671275138855E-001,-6.360461115837097E-001,-5.326432585716248E-001,-6.354527473449707E-001,-1.674228459596634E-001,2.909277975559235E-001,
6.817200000000000E+008,-1.038129329681397E-001,3.347186148166657E-001,-5.766620635986328E-001,-5.866292119026184E-001,-5.830396413803101E-001,-5.844392776489258E-001,-1.524494737386704E-001,2.945941686630249E-001,
7.057100000000000E+008,-8.415292948484421E-002,3.494451940059662E-001,-6.156037449836731E-001,-5.287995934486389E-001,-6.202703118324280E-001,-5.269197225570679E-001,-1.471704095602036E-001,3.116877675056458E-001,
7.297000000000000E+008,-6.255187839269638E-002,3.555220663547516E-001,-6.540562510490418E-001,-4.742657542228699E-001,-6.488588452339172E-001,-4.743039309978485E-001,-1.294409781694412E-001,3.429810702800751E-001,
7.536900000000000E+008,-3.277989104390144E-002,3.575571179389954E-001,-6.947906017303467E-001,-4.183805286884308E-001,-6.777282953262329E-001,-4.289938807487488E-001,-9.209033846855164E-002,3.684774041175842E-001,
7.776800000000000E+008,4.392826929688454E-003,3.616929054260254E-001,-7.192386984825134E-001,-3.679520189762116E-001,-7.148206233978272E-001,-3.776141703128815E-001,-5.069213733077049E-002,3.713588118553162E-001,
8.016700000000000E+008,4.530689865350723E-002,3.739771842956543E-001,-7.430507540702820E-001,-3.173949718475342E-001,-7.431095242500305E-001,-3.117640912532806E-001,-3.127421438694000E-002,3.661747872829437E-001,
8.256600000000000E+008,7.950993627309799E-002,3.841755986213684E-001,-7.509964108467102E-001,-2.532712221145630E-001,-7.557455301284790E-001,-2.447685152292252E-001,-2.054746076464653E-002,3.768212497234345E-001,
8.496500000000000E+008,1.044499054551125E-001,3.899456858634949E-001,-7.597258090972900E-001,-1.908255517482758E-001,-7.595956325531006E-001,-1.875888854265213E-001,6.797445006668568E-003,3.998679220676422E-001,
8.736400000000000E+008,1.243248879909515E-001,3.828082084655762E-001,-7.689449191093445E-001,-1.224512606859207E-001,-7.681152820587158E-001,-1.360052824020386E-001,5.456938967108727E-002,4.108540117740631E-001,
8.976300000000000E+008,1.509226560592651E-001,3.672015070915222E-001,-7.794862389564514E-001,-5.944269150495529E-002,-7.814278602600098E-001,-7.774609327316284E-002,9.786220639944077E-002,3.973646163940430E-001,
9.216200000000000E+008,1.910090595483780E-001,3.483559787273407E-001,-7.864211201667786E-001,-5.526262335479260E-003,-7.868577241897583E-001,-9.626325219869614E-003,1.183811128139496E-001,3.806597292423248E-001,
9.456100000000000E+008,2.376316785812378E-001,3.341751396656036E-001,-7.812778949737549E-001,4.846415668725967E-002,-7.736791372299194E-001,5.817728862166405E-002,1.311250776052475E-001,3.838690817356110E-001,
9.696000000000000E+008,2.763384580612183E-001,3.298379778862000E-001,-7.585547566413879E-001,1.001074612140656E-001,-7.535842657089233E-001,1.100763082504273E-001,1.639616787433624E-001,3.958260715007782E-001,
9.935900000000000E+008,2.997709512710571E-001,3.233090937137604E-001,-7.405652403831482E-001,1.593988686800003E-001,-7.437076568603516E-001,1.531954705715179E-001,2.147801071405411E-001,3.908458352088928E-001,
1.017580000000000E+009,3.113638758659363E-001,3.111230432987213E-001,-7.198945283889771E-001,2.256998121738434E-001,-7.410279512405396E-001,2.137965857982636E-001,2.555389702320099E-001,3.578111827373505E-001,
1.041570000000000E+009,3.276387751102448E-001,2.763398289680481E-001,-7.038034796714783E-001,2.875807285308838E-001,-7.185124158859253E-001,2.811402082443237E-001,2.669773399829865E-001,3.305081129074097E-001,
1.065560000000000E+009,3.546730875968933E-001,2.340305894613266E-001,-6.862486600875855E-001,3.369565904140472E-001,-6.798940896987915E-001,3.368236422538757E-001,2.775543332099915E-001,3.262183368206024E-001,
1.089550000000000E+009,3.945706188678742E-001,1.946342140436173E-001,-6.637474894523621E-001,3.749948441982269E-001,-6.432284712791443E-001,3.749656975269318E-001,3.114112317562103E-001,3.292520642280579E-001,
1.113540000000000E+009,4.295349419116974E-001,1.723400652408600E-001,-6.255720257759094E-001,4.131397306919098E-001,-6.184079647064209E-001,4.102714955806732E-001,3.614307940006256E-001,3.062921762466431E-001,
1.137530000000000E+009,4.475765228271484E-001,1.620169281959534E-001,-5.786141753196716E-001,4.558807611465454E-001,-5.975704193115234E-001,4.599416851997376E-001,3.918299078941345E-001,2.583344280719757E-001,
1.161520000000000E+009,4.495932161808014E-001,1.441674828529358E-001,-5.292953848838806E-001,5.067902803421021E-001,-5.567594170570374E-001,5.197653770446777E-001,3.911686539649963E-001,2.210130542516708E-001,
1.185510000000000E+009,4.415636062622070E-001,1.042627543210983E-001,-4.903289377689362E-001,5.562840104103088E-001,-4.981934130191803E-001,5.588084459304810E-001,3.955481350421906E-001,2.135905325412750E-001,
1.209500000000000E+009,4.454119503498077E-001,4.483855515718460E-002,-4.574823975563049E-001,5.945504307746887E-001,-4.475932419300079E-001,5.788902640342712E-001,4.273763298988342E-001,2.064443677663803E-001,
1.233490000000000E+009,4.612871408462524E-001,-1.401502266526222E-002,-4.287836849689484E-001,6.211461424827576E-001,-4.146315157413483E-001,6.028622388839722E-001,4.720126390457153E-001,1.675553023815155E-001,
1.257480000000000E+009,4.861050546169281E-001,-5.016735196113586E-002,-3.701651096343994E-001,6.381244659423828E-001,-3.736099898815155E-001,6.409492492675781E-001,4.833833277225494E-001,1.053273454308510E-001,
1.281470000000000E+009,5.000246167182922E-001,-6.497761607170105E-002,-3.111725747585297E-001,6.451438069343567E-001,-3.193085789680481E-001,6.774458289146423E-001,4.692693352699280E-001,6.636627763509750E-002,
1.305460000000000E+009,4.933551251888275E-001,-7.814824581146240E-002,-2.461598217487335E-001,6.725051999092102E-001,-2.487013489007950E-001,6.986492276191711E-001,4.640440344810486E-001,5.757514014840126E-002,
1.329450000000000E+009,4.641799628734589E-001,-1.113565713167191E-001,-1.860681325197220E-001,7.040076255798340E-001,-1.910910308361054E-001,6.950300335884094E-001,4.924924075603485E-001,4.170752689242363E-002,
1.353440000000000E+009,4.328734278678894E-001,-1.700405776500702E-001,-1.390330195426941E-001,7.269335985183716E-001,-1.574929356575012E-001,7.000236511230469E-001,5.218071937561035E-001,-1.075215823948383E-002,
1.377430000000000E+009,4.187383055686951E-001,-2.314202785491943E-001,-1.052441969513893E-001,7.413579821586609E-001,-1.107403934001923E-001,7.334491014480591E-001,5.126488804817200E-001,-7.929539680480957E-002,
1.401420000000000E+009,4.236372411251068E-001,-2.798168361186981E-001,-4.377491399645805E-002,7.249635457992554E-001,-2.761751785874367E-002,7.451550960540772E-001,4.775608479976654E-001,-1.100606992840767E-001,
1.425410000000000E+009,4.347471594810486E-001,-2.988987267017365E-001,3.002483397722244E-003,7.021732926368713E-001,3.956664353609085E-002,7.264844775199890E-001,4.724485874176025E-001,-1.193690523505211E-001,
1.449400000000000E+009,4.253807365894318E-001,-3.104438185691834E-001,8.058170229196549E-002,6.972466707229614E-001,9.028087556362152E-002,7.022024989128113E-001,4.922586977481842E-001,-1.416996866464615E-001,
1.473390000000000E+009,3.811776041984558E-001,-3.216454684734345E-001,1.490433067083359E-001,6.970768570899963E-001,1.237056255340576E-001,6.888995766639710E-001,5.001373887062073E-001,-2.071434408426285E-001,
1.497380000000000E+009,3.241226077079773E-001,-3.560081422328949E-001,2.106848061084747E-001,6.935101151466370E-001,1.678429245948792E-001,6.943035721778870E-001,4.624375104904175E-001,-2.626493871212006E-001,
1.521370000000000E+009,2.773959040641785E-001,-4.035083353519440E-001,2.330428808927536E-001,6.886240839958191E-001,2.377443909645081E-001,6.943097710609436E-001,4.186197221279144E-001,-2.826079428195953E-001,
1.545360000000000E+009,2.590071260929108E-001,-4.536975920200348E-001,2.803945541381836E-001,6.648960709571838E-001,3.141932785511017E-001,6.531966924667358E-001,4.111807048320770E-001,-2.816652655601502E-001,
1.569350000000000E+009,2.556142210960388E-001,-4.835850000381470E-001,3.138606548309326E-001,6.161293983459473E-001,3.474151194095612E-001,6.016904115676880E-001,4.241010546684265E-001,-3.181195259094238E-001,
1.593340000000000E+009,2.415698319673538E-001,-4.921496808528900E-001,3.745858669281006E-001,5.701411366462708E-001,3.720324337482452E-001,5.797258019447327E-001,4.072347283363342E-001,-3.804426491260529E-001,
1.617330000000000E+009,2.029726356267929E-001,-4.802462756633759E-001,4.334173798561096E-001,5.363533496856690E-001,4.222732484340668E-001,5.651569962501526E-001,3.478029370307922E-001,-4.220919907093048E-001,
1.641320000000000E+009,1.409139931201935E-001,-4.779407382011414E-001,4.901010394096375E-001,5.040434598922730E-001,4.779734313488007E-001,5.221701264381409E-001,3.030112981796265E-001,-4.190343320369721E-001,
1.665310000000000E+009,8.007600903511047E-002,-4.954035580158234E-001,5.084809064865112E-001,4.867895841598511E-001,5.154395103454590E-001,4.674507677555084E-001,2.927354574203491E-001,-4.233289659023285E-001,
1.689300000000000E+009,3.293101489543915E-002,-5.302395224571228E-001,5.330883264541626E-001,4.529221653938294E-001,5.334520339965820E-001,4.146806597709656E-001,2.898746132850647E-001,-4.594874382019043E-001,
1.713290000000000E+009,5.145184695720673E-003,-5.596424341201782E-001,5.452797412872315E-001,3.993304967880249E-001,5.464259982109070E-001,3.852368593215942E-001,2.491360157728195E-001,-5.096576213836670E-001,
1.737280000000000E+009,-1.643968932330608E-002,-5.625059604644775E-001,5.684602260589600E-001,3.311750888824463E-001,5.857176780700684E-001,3.567478358745575E-001,1.848666071891785E-001,-5.275079011917114E-001,
1.761270000000000E+009,-4.240991920232773E-002,-5.416844487190247E-001,6.064743399620056E-001,2.772501707077026E-001,6.279488801956177E-001,2.923984527587891E-001,1.422200053930283E-001,-5.133191943168640E-001,
1.785260000000000E+009,-8.907623589038849E-002,-5.108954906463623E-001,6.305301189422607E-001,2.196260094642639E-001,6.298064589500427E-001,2.235987484455109E-001,1.305291652679443E-001,-5.163134932518005E-001,
1.809250000000000E+009,-1.487156748771668E-001,-4.995393157005310E-001,6.434189677238464E-001,2.047196328639984E-001,6.240284442901611E-001,1.817453950643539E-001,1.046968549489975E-001,-5.440637469291687E-001,
1.833240000000000E+009,-2.123377472162247E-001,-5.015212893486023E-001,6.613427996635437E-001,1.601272970438004E-001,6.294562220573425E-001,1.492405384778976E-001,5.541236698627472E-002,-5.739357471466065E-001,
1.857230000000000E+009,-2.561995387077332E-001,-5.088436603546143E-001,6.435984969139099E-001,1.100169643759728E-001,6.501840949058533E-001,1.083859950304031E-001,-8.451914414763451E-003,-5.690618753433228E-001,
1.881220000000000E+009,-2.808802425861359E-001,-5.001536011695862E-001,6.356425881385803E-001,4.543928802013397E-002,6.648982167243958E-001,4.983818903565407E-002,-4.512551426887512E-002,-5.494034886360169E-001,
1.905210000000000E+009,-2.944051623344421E-001,-4.714586436748505E-001,6.370708942413330E-001,-1.227426528930664E-002,6.597063541412354E-001,-1.827690750360489E-002,-6.646040827035904E-002,-5.434296727180481E-001,
1.929200000000000E+009,-3.220919072628021E-001,-4.310175776481628E-001,6.447248458862305E-001,-6.755441427230835E-002,6.322774887084961E-001,-6.685249507427216E-002,-9.907026588916779E-002,-5.582490563392639E-001,
1.953190000000000E+009,-3.692770302295685E-001,-3.931278884410858E-001,6.470590233802795E-001,-1.018256545066834E-001,6.208901405334473E-001,-9.538158774375916E-002,-1.545228660106659E-001,-5.612808465957642E-001,
1.977180000000000E+009,-4.236269593238831E-001,-3.626841306686401E-001,6.353635787963867E-001,-1.417787671089172E-001,6.228801608085632E-001,-1.363462656736374E-001,-2.086848169565201E-001,-5.417318344116211E-001,
2.001170000000000E+009,-4.659197926521301E-001,-3.424237966537476E-001,6.056472063064575E-001,-1.792147904634476E-001,6.111779212951660E-001,-1.933809667825699E-001,-2.395649999380112E-001,-5.116080045700073E-001,
2.025160000000000E+009,-4.827485978603363E-001,-3.209953606128693E-001,5.728379487991333E-001,-2.272983342409134E-001,5.839098095893860E-001,-2.407296597957611E-001,-2.629275918006897E-001,-4.987197816371918E-001,
2.049150000000000E+009,-4.876266419887543E-001,-2.902207970619202E-001,5.548157095909119E-001,-2.708556950092316E-001,5.571282505989075E-001,-2.786787748336792E-001,-2.975541055202484E-001,-4.911857247352600E-001,
2.073140000000000E+009,-4.983550906181335E-001,-2.424397319555283E-001,5.432864427566528E-001,-3.290510177612305E-001,5.311726331710815E-001,-3.100646436214447E-001,-3.463094830513001E-001,-4.790107905864716E-001,
2.097130000000000E+009,-5.231224298477173E-001,-1.886945664882660E-001,5.150406956672669E-001,-3.630678653717041E-001,5.137093663215637E-001,-3.446324169635773E-001,-3.895199894905090E-001,-4.408360421657562E-001,
2.121120000000000E+009,-5.552690029144287E-001,-1.373738944530487E-001,4.898142516613007E-001,-3.865417540073395E-001,4.889516234397888E-001,-3.895941674709320E-001,-4.139468073844910E-001,-4.047011137008667E-001,
2.145110000000000E+009,-5.773259401321411E-001,-1.004807874560356E-001,4.516536593437195E-001,-4.109116494655609E-001,4.469057619571686E-001,-4.285345971584320E-001,-4.319966435432434E-001,-3.792010843753815E-001,
2.169100000000000E+009,-5.829159617424011E-001,-7.202060520648956E-002,4.101371169090271E-001,-4.403069615364075E-001,4.047531187534332E-001,-4.507486820220947E-001,-4.607254862785339E-001,-3.586712777614594E-001,
2.193090000000000E+009,-5.769430994987488E-001,-3.634440526366234E-002,3.749638199806213E-001,-4.764789640903473E-001,3.729645311832428E-001,-4.694595336914063E-001,-4.968234300613403E-001,-3.283700048923492E-001,
2.217080000000000E+009,-5.687099695205689E-001,1.412786170840263E-002,3.354403078556061E-001,-5.131805539131165E-001,3.436949849128723E-001,-4.947105348110199E-001,-5.278618335723877E-001,-2.827821373939514E-001,
