% Version 1.00
%
%freq[Hz],re:Trc1_S11,im:Trc1_S11,re:Trc2_S21,im:Trc2_S21,re:Trc3_S12,im:Trc3_S12,re:Trc4_S22,im:Trc4_S22,
1.000000000000000E+007,2.157372608780861E-002,-4.461714066565037E-003,9.655171036720276E-001,-5.329568684101105E-002,9.668651819229126E-001,-1.689619570970535E-002,1.328434143215418E-002,9.419722482562065E-003,
1.299500000000000E+008,9.089016821235418E-004,-6.615549791604281E-003,9.423043131828308E-001,-3.209990262985230E-001,9.439356923103333E-001,-3.238663971424103E-001,-2.274101279908791E-004,-5.657662171870470E-003,
2.499000000000000E+008,-7.719182409346104E-003,-1.198435388505459E-002,8.008490800857544E-001,-5.914606451988220E-001,8.007556796073914E-001,-5.930451154708862E-001,-3.567592240869999E-003,-1.340488158166409E-002,
3.698500000000000E+008,-1.944193989038467E-002,-1.072934363037348E-002,5.845521688461304E-001,-8.052753806114197E-001,5.860043764114380E-001,-8.052796721458435E-001,-1.168916560709477E-002,-2.039484493434429E-002,
4.898000000000000E+008,-3.041087277233601E-002,-3.271051915362477E-003,3.151830732822418E-001,-9.426393508911133E-001,3.165641129016876E-001,-9.435551762580872E-001,-2.252211421728134E-002,-2.196776680648327E-002,
6.097500000000000E+008,-3.691053763031960E-002,1.319718733429909E-002,1.726561039686203E-002,-9.927043318748474E-001,1.886085048317909E-002,-9.917448759078980E-001,-3.660914301872253E-002,-1.990449987351894E-002,
7.297000000000000E+008,-3.553667291998863E-002,3.271799534559250E-002,-2.802726924419403E-001,-9.518405795097351E-001,-2.795791625976563E-001,-9.512974023818970E-001,-5.002920702099800E-002,-1.116470061242580E-002,
8.496500000000000E+008,-2.513998001813889E-002,5.076294764876366E-002,-5.517418384552002E-001,-8.241090178489685E-001,-5.509008765220642E-001,-8.231639266014099E-001,-6.050139665603638E-002,3.637111280113459E-003,
9.696000000000000E+008,-5.619195289909840E-003,6.707640737295151E-002,-7.724683880805969E-001,-6.196947693824768E-001,-7.715483903884888E-001,-6.195655465126038E-001,-6.571500748395920E-002,2.183251269161701E-002,
1.089550000000000E+009,2.090518735349178E-002,7.435002177953720E-002,-9.215912818908691E-001,-3.592920601367950E-001,-9.209471940994263E-001,-3.592021465301514E-001,-6.500395387411118E-002,4.308760166168213E-002,
1.209500000000000E+009,5.251843854784966E-002,7.054169476032257E-002,-9.860971570014954E-001,-6.671735644340515E-002,-9.854246377944946E-001,-6.751426309347153E-002,-5.743193253874779E-002,6.407946348190308E-002,
1.329450000000000E+009,8.337458223104477E-002,5.262948945164681E-002,-9.591788053512573E-001,2.310932129621506E-001,-9.592344760894775E-001,2.311994731426239E-001,-4.397862032055855E-002,8.319969475269318E-002,
1.449400000000000E+009,1.068155243992806E-001,1.991255953907967E-002,-8.451822996139526E-001,5.071103572845459E-001,-8.453941345214844E-001,5.070719718933106E-001,-2.487375214695931E-002,9.805498272180557E-002,
1.569350000000000E+009,1.146242767572403E-001,-2.260863222181797E-002,-6.539043784141541E-001,7.361990809440613E-001,-6.539723277091980E-001,7.361382246017456E-001,-2.010552212595940E-003,1.082111820578575E-001,
1.689300000000000E+009,1.036959066987038E-001,-6.704071909189224E-002,-4.036584794521332E-001,8.973161578178406E-001,-4.025972485542297E-001,8.970273137092590E-001,2.374248765408993E-002,1.122115552425385E-001,
1.809250000000000E+009,7.504180073738098E-002,-1.052933707833290E-001,-1.158541887998581E-001,9.764329791069031E-001,-1.161292344331741E-001,9.751107096672058E-001,4.965657368302345E-002,1.101967990398407E-001,
1.929200000000000E+009,3.277917951345444E-002,-1.306293457746506E-001,1.813740134239197E-001,9.650542140007019E-001,1.808273345232010E-001,9.645001292228699E-001,7.568954676389694E-002,1.022940054535866E-001,
2.049150000000000E+009,-1.779217086732388E-002,-1.398525089025497E-001,4.610008001327515E-001,8.647242784500122E-001,4.609515368938446E-001,8.656381368637085E-001,1.004438400268555E-001,8.859379589557648E-002,
2.169100000000000E+009,-7.192340493202210E-002,-1.291859894990921E-001,6.992560029029846E-001,6.864982247352600E-001,6.981201767921448E-001,6.868456602096558E-001,1.225160583853722E-001,6.949228793382645E-002,
2.289050000000000E+009,-1.224521920084953E-001,-9.603489190340042E-002,8.700911998748779E-001,4.447525143623352E-001,8.709737062454224E-001,4.453675150871277E-001,1.414822787046433E-001,4.481128230690956E-002,
2.409000000000000E+009,-1.577095240354538E-001,-4.142443463206291E-002,9.622880220413208E-001,1.633995324373245E-001,9.634644985198975E-001,1.647537499666214E-001,1.553513109683991E-001,1.551738940179348E-002,
2.528950000000000E+009,-1.669048368930817E-001,2.642288804054260E-002,9.649628996849060E-001,-1.325704008340836E-001,9.660986065864563E-001,-1.320131123065949E-001,1.637110412120819E-001,-1.811653375625610E-002,
2.648900000000000E+009,-1.473616957664490E-001,9.365893900394440E-002,8.812749385833740E-001,-4.141610562801361E-001,8.811191916465759E-001,-4.149309992790222E-001,1.646639704704285E-001,-5.531924962997437E-002,
2.768850000000000E+009,-1.021563708782196E-001,1.480047255754471E-001,7.152948379516602E-001,-6.579021215438843E-001,7.151582241058350E-001,-6.572559475898743E-001,1.564912647008896E-001,-9.408308565616608E-002,
2.888800000000000E+009,-4.046824574470520E-002,1.809841543436050E-001,4.850443005561829E-001,-8.405570387840271E-001,4.850478768348694E-001,-8.398420810699463E-001,1.381954848766327E-001,-1.328609287738800E-001,
3.008750000000000E+009,2.898482233285904E-002,1.906823813915253E-001,2.105649560689926E-001,-9.452654123306274E-001,2.119671106338501E-001,-9.447828531265259E-001,1.092774718999863E-001,-1.678177416324616E-001,
3.128700000000000E+009,1.002521961927414E-001,1.752186715602875E-001,-8.082579821348190E-002,-9.624601602554321E-001,-8.052499592304230E-002,-9.628096222877502E-001,7.042665779590607E-002,-1.963601112365723E-001,
3.248650000000000E+009,1.647943556308746E-001,1.336997598409653E-001,-3.632312715053558E-001,-8.935856819152832E-001,-3.640760183334351E-001,-8.932300209999085E-001,2.291870675981045E-002,-2.148391455411911E-001,
3.368600000000000E+009,2.108789980411530E-001,6.754472851753235E-002,-6.127487421035767E-001,-7.413426041603088E-001,-6.115621328353882E-001,-7.420960664749146E-001,-2.945785038173199E-002,-2.207866460084915E-001,
3.488550000000000E+009,2.280089855194092E-001,-1.424608007073402E-002,-8.045811057090759E-001,-5.242705345153809E-001,-8.042854666709900E-001,-5.249711871147156E-001,-8.325027674436569E-002,-2.137272804975510E-001,
3.608500000000000E+009,2.113444507122040E-001,-9.648585319519043E-002,-9.233435988426209E-001,-2.602438032627106E-001,-9.233859777450562E-001,-2.609268426895142E-001,-1.357179284095764E-001,-1.922681927680969E-001,
3.728450000000000E+009,1.669032722711563E-001,-1.659416705369949E-001,-9.587706923484802E-001,2.545517683029175E-002,-9.580592513084412E-001,2.524078078567982E-002,-1.815318465232849E-001,-1.570497155189514E-001,
3.848400000000000E+009,1.017996892333031E-001,-2.144532650709152E-001,-9.069553613662720E-001,3.114942908287048E-001,-9.046157002449036E-001,3.109163343906403E-001,-2.175112813711166E-001,-1.096978858113289E-001,
3.968350000000000E+009,2.338203974068165E-002,-2.392414063215256E-001,-7.721845507621765E-001,5.663041472434998E-001,-7.706164121627808E-001,5.657917857170105E-001,-2.400784194469452E-001,-5.556663125753403E-002,
4.088300000000000E+009,-6.048428639769554E-002,-2.375985234975815E-001,-5.655791759490967E-001,7.705730199813843E-001,-5.660976171493530E-001,7.675892114639282E-001,-2.483626157045364E-001,2.491007559001446E-003,
4.208250000000000E+009,-1.433735787868500E-001,-2.062332630157471E-001,-3.102004230022430E-001,9.016957283020020E-001,-3.094447255134583E-001,9.005189538002014E-001,-2.436560839414597E-001,6.110282614827156E-002,
4.328200000000000E+009,-2.138894051313400E-001,-1.430994421243668E-001,-2.710701711475849E-002,9.522078037261963E-001,-2.889744192361832E-002,9.524065256118774E-001,-2.255530357360840E-001,1.163940206170082E-001,
4.448150000000000E+009,-2.561096549034119E-001,-5.185233801603317E-002,2.570918202400208E-001,9.147549271583557E-001,2.569767236709595E-001,9.152281284332275E-001,-1.955951154232025E-001,1.666028201580048E-001,
4.568100000000000E+009,-2.593210935592651E-001,5.056001618504524E-002,5.174598693847656E-001,7.967789769172669E-001,5.188466310501099E-001,7.957720756530762E-001,-1.557420194149017E-001,2.091428190469742E-001,
4.688050000000000E+009,-2.216299325227737E-001,1.462143063545227E-001,7.309235930442810E-001,6.063794493675232E-001,7.313188910484314E-001,6.035459041595459E-001,-1.067145392298698E-001,2.421227097511292E-001,
4.808000000000000E+009,-1.515084803104401E-001,2.210507243871689E-001,8.774772286415100E-001,3.589512705802918E-001,8.771008253097534E-001,3.567784726619721E-001,-5.179369077086449E-002,2.644461691379547E-001,
4.927950000000000E+009,-5.931930243968964E-002,2.663302719593048E-001,9.433013796806335E-001,7.868558168411255E-002,9.414532184600830E-001,7.866817712783814E-002,7.897874340415001E-003,2.744456231594086E-001,
5.047900000000000E+009,4.671640321612358E-002,2.774173915386200E-001,9.206858277320862E-001,-2.061699926853180E-001,9.200231432914734E-001,-2.058696001768112E-001,6.942880898714066E-002,2.716429531574249E-001,
5.167850000000000E+009,1.547031998634338E-001,2.480784654617310E-001,8.142749667167664E-001,-4.710493683815002E-001,8.151282072067261E-001,-4.699559211730957E-001,1.306642740964890E-001,2.558622360229492E-001,
5.287800000000000E+009,2.488500177860260E-001,1.748264133930206E-001,6.337634921073914E-001,-6.897839903831482E-001,6.375102400779724E-001,-6.892641186714172E-001,1.891870796680450E-001,2.262772470712662E-001,
5.407750000000000E+009,3.059283196926117E-001,6.590187549591065E-002,3.984000086784363E-001,-8.457378149032593E-001,4.009670615196228E-001,-8.460346460342407E-001,2.413401752710342E-001,1.820583641529083E-001,
5.527700000000000E+009,3.136968314647675E-001,-5.963169410824776E-002,1.294186264276505E-001,-9.240205883979797E-001,1.291812807321549E-001,-9.276137948036194E-001,2.832951843738556E-001,1.260072737932205E-001,
5.647650000000000E+009,2.722614109516144E-001,-1.749455779790878E-001,-1.511418223381043E-001,-9.196951389312744E-001,-1.508333235979080E-001,-9.216088056564331E-001,3.113408684730530E-001,5.933569371700287E-002,
5.767600000000000E+009,1.921781003475189E-001,-2.628128826618195E-001,-4.188630282878876E-001,-8.313001394271851E-001,-4.173442721366882E-001,-8.311718702316284E-001,3.233674168586731E-001,-1.369699835777283E-002,
5.887550000000000E+009,8.824121952056885E-002,-3.159132301807404E-001,-6.462874412536621E-001,-6.676252484321594E-001,-6.446152329444885E-001,-6.676155328750610E-001,3.173656761646271E-001,-8.823646605014801E-002,
6.007500000000000E+009,-2.679562196135521E-002,-3.319898247718811E-001,-8.140064477920532E-001,-4.432319700717926E-001,-8.116435408592224E-001,-4.449160099029541E-001,2.939595580101013E-001,-1.614592671394348E-001,
6.127450000000000E+009,-1.434621810913086E-001,-3.076885044574738E-001,-9.058250188827515E-001,-1.798469722270966E-001,-9.050410985946655E-001,-1.834795773029327E-001,2.533200085163117E-001,-2.276898473501205E-001,
6.247400000000000E+009,-2.482599616050720E-001,-2.408168017864227E-001,-9.157894253730774E-001,9.677236527204514E-002,-9.170882105827332E-001,9.343592822551727E-002,1.966152191162109E-001,-2.843458950519562E-001,
6.367350000000000E+009,-3.217804431915283E-001,-1.365924328565598E-001,-8.444229960441589E-001,3.615178763866425E-001,-8.469559550285339E-001,3.602907359600067E-001,1.276967972517014E-001,-3.256645202636719E-001,
6.487300000000000E+009,-3.495315611362457E-001,-1.114152744412422E-002,-6.998917460441589E-001,5.938630700111389E-001,-6.994044184684753E-001,5.947360396385193E-001,4.963612928986549E-002,-3.498271703720093E-001,
6.607250000000000E+009,-3.281511962413788E-001,1.136913150548935E-001,-4.929693639278412E-001,7.751936912536621E-001,-4.906952083110809E-001,7.746438980102539E-001,-3.307266533374786E-002,-3.549505472183228E-001,
6.727200000000000E+009,-2.654352486133575E-001,2.194689810276032E-001,-2.423492521047592E-001,8.872789740562439E-001,-2.378801852464676E-001,8.844811916351318E-001,-1.140447109937668E-001,-3.411903083324432E-001,
6.847150000000000E+009,-1.729013919830322E-001,2.976643443107605E-001,3.397922590374947E-002,9.186131358146668E-001,3.492221981287003E-002,9.127029776573181E-001,-1.898956447839737E-001,-3.076117932796478E-001,
6.967100000000000E+009,-6.102170795202255E-002,3.430591523647308E-001,3.065795600414276E-001,8.647999763488770E-001,3.018153011798859E-001,8.593883514404297E-001,-2.581931650638580E-001,-2.580336630344391E-001,
7.087050000000000E+009,6.663081049919128E-002,3.508253097534180E-001,5.476561188697815E-001,7.313053011894226E-001,5.440286993980408E-001,7.321863770484924E-001,-3.120969533920288E-001,-1.925401985645294E-001,
7.207000000000000E+009,1.952436268329620E-001,3.100496828556061E-001,7.398158311843872E-001,5.319254398345947E-001,7.352186441421509E-001,5.377392768859863E-001,-3.501674234867096E-001,-1.163585558533669E-001,
7.326950000000000E+009,3.044584095478058E-001,2.164963930845261E-001,8.603703379631043E-001,2.901749908924103E-001,8.632900714874268E-001,2.942036092281342E-001,-3.690798878669739E-001,-3.205942362546921E-002,
7.446900000000000E+009,3.680267930030823E-001,8.404934406280518E-002,9.072898626327515E-001,2.407664619386196E-002,9.114258885383606E-001,2.378971688449383E-002,-3.673253059387207E-001,5.362207069993019E-002,
7.566850000000000E+009,3.705388903617859E-001,-6.203451752662659E-002,8.752707242965698E-001,-2.458448261022568E-001,8.745627999305725E-001,-2.470523864030838E-001,-3.462961614131928E-001,1.361030042171478E-001,
7.686800000000000E+009,3.204433023929596E-001,-1.950713396072388E-001,7.636361718177795E-001,-4.951675832271576E-001,7.617572546005249E-001,-4.957281947135925E-001,-3.077704906463623E-001,2.103593647480011E-001,
7.806750000000000E+009,2.264057695865631E-001,-2.984807789325714E-001,5.789794325828552E-001,-7.012264728546143E-001,5.803616046905518E-001,-6.989845633506775E-001,-2.543547153472900E-001,2.741637527942658E-001,
7.926700000000000E+009,1.017792820930481E-001,-3.642561137676239E-001,3.408830463886261E-001,-8.418030142784119E-001,3.460427820682526E-001,-8.393474817276001E-001,-1.882071048021317E-001,3.244618773460388E-001,
8.046650000000000E+009,-4.196508973836899E-002,-3.820530772209168E-001,7.182537019252777E-002,-9.016266465187073E-001,8.092808723449707E-002,-9.040797948837280E-001,-1.134610101580620E-001,3.582757115364075E-001,
8.166600000000000E+009,-1.886729598045349E-001,-3.421048820018768E-001,-1.992529034614563E-001,-8.791515827178955E-001,-1.923641264438629E-001,-8.854925036430359E-001,-3.345676884055138E-002,3.748273849487305E-001,
8.286550000000000E+009,-3.114498555660248E-001,-2.429393380880356E-001,-4.483118653297424E-001,-7.782835960388184E-001,-4.462874829769135E-001,-7.874367237091065E-001,4.651517048478127E-002,3.747408688068390E-001,
8.406500000000000E+009,-3.817532360553742E-001,-9.949101507663727E-002,-6.579467058181763E-001,-6.108422875404358E-001,-6.595122814178467E-001,-6.182755827903748E-001,1.244700849056244E-001,3.591755032539368E-001,
8.526450000000000E+009,-3.862535357475281E-001,5.699140205979347E-002,-8.094140887260437E-001,-3.892194926738739E-001,-8.121796250343323E-001,-3.931453227996826E-001,1.993588805198669E-001,3.300789892673492E-001,
8.646400000000000E+009,-3.336129784584045E-001,1.972665190696716E-001,-8.891361355781555E-001,-1.310049295425415E-001,-8.899334073066711E-001,-1.323032081127167E-001,2.680220603942871E-001,2.854022085666657E-001,
8.766350000000000E+009,-2.353785932064056E-001,3.052992224693298E-001,-8.868978023529053E-001,1.399449557065964E-001,-8.860903382301331E-001,1.371323466300964E-001,3.268073201179504E-001,2.255396097898483E-001,
8.886300000000000E+009,-1.117053478956223E-001,3.733993470668793E-001,-8.029584884643555E-001,3.976831734180450E-001,-8.044285774230957E-001,3.914771974086762E-001,3.747383952140808E-001,1.531632393598557E-001,
9.006250000000000E+009,3.029389865696430E-002,3.974596858024597E-001,-6.456447839736939E-001,6.175001263618469E-001,-6.517180204391480E-001,6.111220121383667E-001,4.062818288803101E-001,6.968304514884949E-002,
9.126200000000000E+009,1.775914281606674E-001,3.718241155147553E-001,-4.325332343578339E-001,7.760516405105591E-001,-4.404795765876770E-001,7.753763198852539E-001,4.184166193008423E-001,-2.266611903905869E-002,
9.246150000000000E+009,3.105874359607697E-001,2.883944809436798E-001,-1.858307719230652E-001,8.653783202171326E-001,-1.909659355878830E-001,8.688313364982605E-001,4.082752466201782E-001,-1.172474771738052E-001,
9.366100000000000E+009,4.027802944183350E-001,1.549479514360428E-001,7.173548638820648E-002,8.797845244407654E-001,7.452741265296936E-002,8.827621936798096E-001,3.743126094341278E-001,-2.087919563055039E-001,
9.486050000000000E+009,4.317175447940826E-001,-1.584498211741447E-003,3.230926990509033E-001,8.212326765060425E-001,3.278626501560211E-001,8.195249438285828E-001,3.187880218029022E-001,-2.908141314983368E-001,
9.606000000000000E+009,4.016296267509460E-001,-1.517322659492493E-001,5.482521653175354E-001,6.925498843193054E-001,5.528064966201782E-001,6.874405145645142E-001,2.429534196853638E-001,-3.581320643424988E-001,
9.725950000000000E+009,3.240948617458344E-001,-2.764902710914612E-001,7.286275625228882E-001,5.018713474273682E-001,7.304064035415649E-001,4.956189990043640E-001,1.510679125785828E-001,-4.046632945537567E-001,
9.845900000000000E+009,2.132339626550674E-001,-3.665350079536438E-001,8.452689051628113E-001,2.637729644775391E-001,8.443568348884583E-001,2.596676051616669E-001,5.039554461836815E-002,-4.255535602569580E-001,
9.965850000000000E+009,7.841001451015472E-002,-4.185619354248047E-001,8.857091665267944E-001,1.035714522004128E-003,8.839762806892395E-001,3.014774993062019E-003,-5.014347285032272E-002,-4.165378808975220E-001,
1.008580000000000E+010,-7.567794620990753E-002,-4.203503727912903E-001,8.469514250755310E-001,-2.597885727882385E-001,8.480501174926758E-001,-2.551887929439545E-001,-1.421281546354294E-001,-3.854811191558838E-001,
1.020575000000000E+010,-2.227474749088287E-001,-3.609673678874970E-001,7.358408570289612E-001,-4.988893270492554E-001,7.423889040946960E-001,-4.952037930488586E-001,-2.215249389410019E-001,-3.324905931949616E-001,
1.032570000000000E+010,-3.343974649906158E-001,-2.385775744915009E-001,5.618173480033875E-001,-6.962630152702332E-001,5.679544806480408E-001,-6.987022161483765E-001,-2.839135825634003E-001,-2.655011415481567E-001,
1.044565000000000E+010,-3.812323510646820E-001,-8.608149737119675E-002,3.338847458362579E-001,-8.385249972343445E-001,3.349962532520294E-001,-8.414115309715271E-001,-3.257485330104828E-001,-1.885301470756531E-001,
1.056560000000000E+010,-3.643603622913361E-001,6.214213743805885E-002,6.819306313991547E-002,-9.070550203323364E-001,6.727868318557739E-002,-9.084891676902771E-001,-3.457700014114380E-001,-1.089962646365166E-001,
1.068555000000000E+010,-2.959216535091400E-001,1.849742382764816E-001,-2.106024771928787E-001,-8.916385173797607E-001,-2.086387723684311E-001,-8.907856345176697E-001,-3.492421209812164E-001,-3.131748735904694E-002,
1.080550000000000E+010,-1.954026967287064E-001,2.717226147651672E-001,-4.731363356113434E-001,-7.895381450653076E-001,-4.688527584075928E-001,-7.896282076835632E-001,-3.381861746311188E-001,3.995180130004883E-002,
1.092545000000000E+010,-7.503285259008408E-002,3.193273842334747E-001,-6.916576623916626E-001,-6.093443036079407E-001,-6.873795390129089E-001,-6.132573485374451E-001,-3.162090778350830E-001,1.060447543859482E-001,
1.104540000000000E+010,5.750928819179535E-002,3.222022354602814E-001,-8.432101607322693E-001,-3.709771633148193E-001,-8.407096266746521E-001,-3.776581585407257E-001,-2.850139141082764E-001,1.670750230550766E-001,
