% Version 1.00
%
%freq[Hz],re:Trc1_S11,im:Trc1_S11,re:Trc2_S21,im:Trc2_S21,re:Trc3_S11,im:Trc3_S11,re:Trc4_S21,im:Trc4_S21,
6.900000000000000E+008,-4.376613348722458E-002,3.466541320085526E-002,-4.934861063957214E-001,-8.562404513359070E-001,-4.376613348722458E-002,3.466541320085526E-002,-4.934861063957214E-001,-8.562404513359070E-001,
6.983666666666666E+008,-3.596168756484985E-002,3.488538041710854E-002,-5.183789134025574E-001,-8.422858119010925E-001,-3.596168756484985E-002,3.488538041710854E-002,-5.183789134025574E-001,-8.422858119010925E-001,
7.067333333333334E+008,-2.911726385354996E-002,3.055822849273682E-002,-5.472744107246399E-001,-8.181189298629761E-001,-2.911726385354996E-002,3.055822849273682E-002,-5.472744107246399E-001,-8.181189298629761E-001,
7.151000000000000E+008,-2.943921461701393E-002,2.238003164529800E-002,-5.820058584213257E-001,-8.204476833343506E-001,-2.943921461701393E-002,2.238003164529800E-002,-5.820058584213257E-001,-8.204476833343506E-001,
7.234666666666666E+008,-3.156640753149986E-002,1.745742745697498E-002,-5.986140370368958E-001,-8.029750585556030E-001,-3.156640753149986E-002,1.745742745697498E-002,-5.986140370368958E-001,-8.029750585556030E-001,
7.318333333333334E+008,-3.872814029455185E-002,1.476922351866961E-002,-6.056635379791260E-001,-7.794132828712463E-001,-3.872814029455185E-002,1.476922351866961E-002,-6.056635379791260E-001,-7.794132828712463E-001,
7.402000000000000E+008,-4.542756080627441E-002,1.649598404765129E-002,-6.220281720161438E-001,-7.610259056091309E-001,-4.542756080627441E-002,1.649598404765129E-002,-6.220281720161438E-001,-7.610259056091309E-001,
7.485666666666666E+008,-5.123036354780197E-002,2.375767379999161E-002,-6.530149579048157E-001,-7.447085380554199E-001,-5.123036354780197E-002,2.375767379999161E-002,-6.530149579048157E-001,-7.447085380554199E-001,
7.569333333333334E+008,-5.503431335091591E-002,3.274989128112793E-002,-6.750580668449402E-001,-7.318431735038757E-001,-5.503431335091591E-002,3.274989128112793E-002,-6.750580668449402E-001,-7.318431735038757E-001,
7.653000000000000E+008,-4.914140328764916E-002,4.158052802085877E-002,-6.781495809555054E-001,-7.158904671669006E-001,-4.914140328764916E-002,4.158052802085877E-002,-6.781495809555054E-001,-7.158904671669006E-001,
7.736666666666666E+008,-4.298046976327896E-002,4.833747074007988E-002,-6.907684206962585E-001,-7.092885971069336E-001,-4.298046976327896E-002,4.833747074007988E-002,-6.907684206962585E-001,-7.092885971069336E-001,
7.820333333333334E+008,-3.447877243161202E-002,5.219303444027901E-002,-7.268506884574890E-001,-6.817012429237366E-001,-3.447877243161202E-002,5.219303444027901E-002,-7.268506884574890E-001,-6.817012429237366E-001,
7.904000000000000E+008,-2.467532455921173E-002,5.132044106721878E-002,-7.335997223854065E-001,-6.656852364540100E-001,-2.467532455921173E-002,5.132044106721878E-002,-7.335997223854065E-001,-6.656852364540100E-001,
7.987666666666666E+008,-2.016146481037140E-002,4.587081447243691E-002,-7.422741651535034E-001,-6.501348018646240E-001,-2.016146481037140E-002,4.587081447243691E-002,-7.422741651535034E-001,-6.501348018646240E-001,
8.071333333333334E+008,-1.837340928614140E-002,3.922838345170021E-002,-7.692802548408508E-001,-6.142663955688477E-001,-1.837340928614140E-002,3.922838345170021E-002,-7.692802548408508E-001,-6.142663955688477E-001,
8.155000000000000E+008,-2.155539393424988E-002,3.204789012670517E-002,-7.939578294754028E-001,-6.037396192550659E-001,-2.155539393424988E-002,3.204789012670517E-002,-7.939578294754028E-001,-6.037396192550659E-001,
8.238666666666666E+008,-2.816709689795971E-002,2.999543398618698E-002,-7.972943186759949E-001,-5.794743895530701E-001,-2.816709689795971E-002,2.999543398618698E-002,-7.972943186759949E-001,-5.794743895530701E-001,
8.322333333333334E+008,-3.438106551766396E-002,3.120647184550762E-002,-8.117564916610718E-001,-5.632053017616272E-001,-3.438106551766396E-002,3.120647184550762E-002,-8.117564916610718E-001,-5.632053017616272E-001,
8.406000000000000E+008,-3.938462957739830E-002,3.418140485882759E-002,-8.218218684196472E-001,-5.427529215812683E-001,-3.938462957739830E-002,3.418140485882759E-002,-8.218218684196472E-001,-5.427529215812683E-001,
8.489666666666668E+008,-4.099814593791962E-002,4.534038156270981E-002,-8.352134823799133E-001,-5.133540034294128E-001,-4.099814593791962E-002,4.534038156270981E-002,-8.352134823799133E-001,-5.133540034294128E-001,
8.573333333333334E+008,-3.904394805431366E-002,5.276246741414070E-002,-8.401437401771545E-001,-4.837080240249634E-001,-3.904394805431366E-002,5.276246741414070E-002,-8.401437401771545E-001,-4.837080240249634E-001,
8.657000000000000E+008,-3.400207683444023E-002,6.021637842059135E-002,-8.656341433525085E-001,-4.856824576854706E-001,-3.400207683444023E-002,6.021637842059135E-002,-8.656341433525085E-001,-4.856824576854706E-001,
8.740666666666668E+008,-2.487215586006641E-002,6.551041454076767E-002,-8.666622042655945E-001,-4.619612395763397E-001,-2.487215586006641E-002,6.551041454076767E-002,-8.666622042655945E-001,-4.619612395763397E-001,
8.824333333333334E+008,-1.702151075005531E-002,6.661472469568253E-002,-8.896173834800720E-001,-4.390583932399750E-001,-1.702151075005531E-002,6.661472469568253E-002,-8.896173834800720E-001,-4.390583932399750E-001,
8.908000000000000E+008,-8.803302422165871E-003,6.343129277229309E-002,-9.033685922622681E-001,-4.194662272930145E-001,-8.803302422165871E-003,6.343129277229309E-002,-9.033685922622681E-001,-4.194662272930145E-001,
8.991666666666668E+008,-3.429573029279709E-003,5.713174492120743E-002,-9.025297760963440E-001,-3.909378051757813E-001,-3.429573029279709E-003,5.713174492120743E-002,-9.025297760963440E-001,-3.909378051757813E-001,
9.075333333333334E+008,-3.257701406255364E-003,4.968357086181641E-002,-9.197186827659607E-001,-3.695617318153381E-001,-3.257701406255364E-003,4.968357086181641E-002,-9.197186827659607E-001,-3.695617318153381E-001,
9.159000000000000E+008,-6.002373062074184E-003,4.373316094279289E-002,-9.394477605819702E-001,-3.426156938076019E-001,-6.002373062074184E-003,4.373316094279289E-002,-9.394477605819702E-001,-3.426156938076019E-001,
9.242666666666668E+008,-1.304478570818901E-002,4.369118064641953E-002,-9.303529858589172E-001,-3.226054310798645E-001,-1.304478570818901E-002,4.369118064641953E-002,-9.303529858589172E-001,-3.226054310798645E-001,
9.326333333333334E+008,-1.839163713157177E-002,4.556294530630112E-002,-9.485161900520325E-001,-3.067326545715332E-001,-1.839163713157177E-002,4.556294530630112E-002,-9.485161900520325E-001,-3.067326545715332E-001,
9.410000000000000E+008,-2.277242578566074E-002,4.966266080737114E-002,-9.557961821556091E-001,-2.719032764434815E-001,-2.277242578566074E-002,4.966266080737114E-002,-9.557961821556091E-001,-2.719032764434815E-001,
9.493666666666668E+008,-2.421324700117111E-002,5.905935168266296E-002,-9.648152589797974E-001,-2.389825284481049E-001,-2.421324700117111E-002,5.905935168266296E-002,-9.648152589797974E-001,-2.389825284481049E-001,
9.577333333333334E+008,-2.121287584304810E-002,6.852411478757858E-002,-9.683480262756348E-001,-2.257454842329025E-001,-2.121287584304810E-002,6.852411478757858E-002,-9.683480262756348E-001,-2.257454842329025E-001,
9.661000000000000E+008,-1.258720830082893E-002,7.473812997341156E-002,-9.689455032348633E-001,-1.844753175973892E-001,-1.258720830082893E-002,7.473812997341156E-002,-9.689455032348633E-001,-1.844753175973892E-001,
9.744666666666668E+008,-2.019958803430200E-003,7.559636980295181E-002,-9.626309275627136E-001,-1.753446459770203E-001,-2.019958803430200E-003,7.559636980295181E-002,-9.626309275627136E-001,-1.753446459770203E-001,
9.828333333333334E+008,7.266955915838480E-003,7.649449259042740E-002,-9.831956624984741E-001,-1.560386568307877E-001,7.266955915838480E-003,7.649449259042740E-002,-9.831956624984741E-001,-1.560386568307877E-001,
9.912000000000000E+008,1.760818250477314E-002,6.987734138965607E-002,-9.814171791076660E-001,-1.331299245357513E-001,1.760818250477314E-002,6.987734138965607E-002,-9.814171791076660E-001,-1.331299245357513E-001,
9.995666666666668E+008,2.136385068297386E-002,6.215703859925270E-002,-9.926760196685791E-001,-9.703282266855240E-002,2.136385068297386E-002,6.215703859925270E-002,-9.926760196685791E-001,-9.703282266855240E-002,
1.007933333333333E+009,2.497996389865875E-002,5.299156904220581E-002,-1.007174015045166E+000,-7.857682555913925E-002,2.497996389865875E-002,5.299156904220581E-002,-1.007174015045166E+000,-7.857682555913925E-002,
1.016300000000000E+009,1.842845790088177E-002,4.646783694624901E-002,-9.946578741073608E-001,-5.278943851590157E-002,1.842845790088177E-002,4.646783694624901E-002,-9.946578741073608E-001,-5.278943851590157E-002,
1.024666666666667E+009,1.066477503627539E-002,4.256130382418633E-002,-9.916431307792664E-001,-2.625748887658119E-002,1.066477503627539E-002,4.256130382418633E-002,-9.916431307792664E-001,-2.625748887658119E-002,
1.033033333333333E+009,5.170844029635191E-003,4.724679514765739E-002,-9.954960346221924E-001,-5.932511412538588E-004,5.170844029635191E-003,4.724679514765739E-002,-9.954960346221924E-001,-5.932511412538588E-004,
1.041400000000000E+009,-2.191033679991961E-003,5.249834060668945E-002,-1.001685142517090E+000,2.038168720901012E-002,-2.191033679991961E-003,5.249834060668945E-002,-1.001685142517090E+000,2.038168720901012E-002,
1.049766666666667E+009,8.165268809534609E-004,6.185164675116539E-002,-9.859551191329956E-001,5.604594573378563E-002,8.165268809534609E-004,6.185164675116539E-002,-9.859551191329956E-001,5.604594573378563E-002,
1.058133333333333E+009,5.105195567011833E-003,7.072614133358002E-002,-9.878477454185486E-001,7.945857942104340E-002,5.105195567011833E-003,7.072614133358002E-002,-9.878477454185486E-001,7.945857942104340E-002,
1.066500000000000E+009,1.597075350582600E-002,7.494871318340302E-002,-9.999021887779236E-001,1.111538037657738E-001,1.597075350582600E-002,7.494871318340302E-002,-9.999021887779236E-001,1.111538037657738E-001,
1.074866666666667E+009,2.966193482279778E-002,7.356629520654678E-002,-9.953399300575256E-001,1.310951113700867E-001,2.966193482279778E-002,7.356629520654678E-002,-9.953399300575256E-001,1.310951113700867E-001,
1.083233333333334E+009,3.839499503374100E-002,6.585719436407089E-002,-9.774753451347351E-001,1.532232016324997E-001,3.839499503374100E-002,6.585719436407089E-002,-9.774753451347351E-001,1.532232016324997E-001,
1.091600000000000E+009,4.481273144483566E-002,5.461457371711731E-002,-9.609853029251099E-001,1.736835241317749E-001,4.481273144483566E-002,5.461457371711731E-002,-9.609853029251099E-001,1.736835241317749E-001,
1.099966666666667E+009,4.413234815001488E-002,4.137668013572693E-002,-9.582007527351379E-001,2.167205065488815E-001,4.413234815001488E-002,4.137668013572693E-002,-9.582007527351379E-001,2.167205065488815E-001,
1.108333333333334E+009,3.554769605398178E-002,3.323375806212425E-002,-9.604036808013916E-001,2.223556935787201E-001,3.554769605398178E-002,3.323375806212425E-002,-9.604036808013916E-001,2.223556935787201E-001,
1.116700000000000E+009,2.517043054103851E-002,2.979899197816849E-002,-9.493739008903503E-001,2.540377974510193E-001,2.517043054103851E-002,2.979899197816849E-002,-9.493739008903503E-001,2.540377974510193E-001,
1.125066666666667E+009,1.361849624663591E-002,3.431781381368637E-002,-9.516013264656067E-001,2.707071602344513E-001,1.361849624663591E-002,3.431781381368637E-002,-9.516013264656067E-001,2.707071602344513E-001,
1.133433333333334E+009,4.921176936477423E-003,4.448423534631729E-002,-9.492785930633545E-001,3.171395361423492E-001,4.921176936477423E-003,4.448423534631729E-002,-9.492785930633545E-001,3.171395361423492E-001,
1.141800000000000E+009,3.412130987271667E-003,5.801198631525040E-002,-9.277183413505554E-001,3.301071226596832E-001,3.412130987271667E-003,5.801198631525040E-002,-9.277183413505554E-001,3.301071226596832E-001,
1.150166666666667E+009,1.247357763350010E-002,7.225970178842545E-002,-9.169099330902100E-001,3.300907909870148E-001,1.247357763350010E-002,7.225970178842545E-002,-9.169099330902100E-001,3.300907909870148E-001,
1.158533333333334E+009,2.827783301472664E-002,8.002732694149017E-002,-9.091294407844544E-001,3.714106380939484E-001,2.827783301472664E-002,8.002732694149017E-002,-9.091294407844544E-001,3.714106380939484E-001,
1.166900000000000E+009,4.759582504630089E-002,7.999682426452637E-002,-8.939478993415833E-001,3.915172815322876E-001,4.759582504630089E-002,7.999682426452637E-002,-8.939478993415833E-001,3.915172815322876E-001,
1.175266666666667E+009,6.344418227672577E-002,6.933799386024475E-002,-8.892251849174500E-001,4.222651720046997E-001,6.344418227672577E-002,6.933799386024475E-002,-8.892251849174500E-001,4.222651720046997E-001,
1.183633333333334E+009,7.573424279689789E-002,5.414415150880814E-002,-8.896577358245850E-001,4.318464100360870E-001,7.573424279689789E-002,5.414415150880814E-002,-8.896577358245850E-001,4.318464100360870E-001,
1.192000000000000E+009,7.551798224449158E-002,3.506819903850555E-002,-8.747911453247070E-001,4.565694928169251E-001,7.551798224449158E-002,3.506819903850555E-002,-8.747911453247070E-001,4.565694928169251E-001,
1.200366666666667E+009,6.622093915939331E-002,1.834806799888611E-002,-8.608015179634094E-001,4.766352474689484E-001,6.622093915939331E-002,1.834806799888611E-002,-8.608015179634094E-001,4.766352474689484E-001,
1.208733333333334E+009,5.067846924066544E-002,9.489282034337521E-003,-8.526138067245483E-001,5.231667757034302E-001,5.067846924066544E-002,9.489282034337521E-003,-8.526138067245483E-001,5.231667757034302E-001,
1.217100000000000E+009,3.487923368811607E-002,1.070256717503071E-002,-8.497323393821716E-001,5.291079282760620E-001,3.487923368811607E-002,1.070256717503071E-002,-8.497323393821716E-001,5.291079282760620E-001,
1.225466666666667E+009,2.165084891021252E-002,2.220781333744526E-002,-8.186973333358765E-001,5.526143908500671E-001,2.165084891021252E-002,2.220781333744526E-002,-8.186973333358765E-001,5.526143908500671E-001,
1.233833333333334E+009,1.724329590797424E-002,3.901299834251404E-002,-8.135173916816711E-001,5.669859051704407E-001,1.724329590797424E-002,3.901299834251404E-002,-8.135173916816711E-001,5.669859051704407E-001,
1.242200000000000E+009,2.566049247980118E-002,5.345119163393974E-002,-7.884222269058228E-001,5.976661443710327E-001,2.566049247980118E-002,5.345119163393974E-002,-7.884222269058228E-001,5.976661443710327E-001,
1.250566666666667E+009,3.805974498391151E-002,6.405381858348846E-002,-7.641617059707642E-001,6.057342886924744E-001,3.805974498391151E-002,6.405381858348846E-002,-7.641617059707642E-001,6.057342886924744E-001,
1.258933333333334E+009,5.840145796537399E-002,6.411080062389374E-002,-7.635170817375183E-001,6.282278895378113E-001,5.840145796537399E-002,6.411080062389374E-002,-7.635170817375183E-001,6.282278895378113E-001,
1.267300000000000E+009,7.801648974418640E-002,5.392840504646301E-002,-7.421240806579590E-001,6.424746513366699E-001,7.801648974418640E-002,5.392840504646301E-002,-7.421240806579590E-001,6.424746513366699E-001,
1.275666666666667E+009,8.747315406799316E-002,3.559966757893562E-002,-7.317709922790527E-001,6.532795429229736E-001,8.747315406799316E-002,3.559966757893562E-002,-7.317709922790527E-001,6.532795429229736E-001,
1.284033333333334E+009,8.968748897314072E-002,1.423479802906513E-002,-7.140535116195679E-001,6.937236785888672E-001,8.968748897314072E-002,1.423479802906513E-002,-7.140535116195679E-001,6.937236785888672E-001,
1.292400000000000E+009,7.855256646871567E-002,-4.174604546278715E-003,-7.022697925567627E-001,6.927115321159363E-001,7.855256646871567E-002,-4.174604546278715E-003,-7.022697925567627E-001,6.927115321159363E-001,
1.300766666666667E+009,5.963387340307236E-002,-1.314357668161392E-002,-6.809878349304199E-001,7.210971713066101E-001,5.963387340307236E-002,-1.314357668161392E-002,-6.809878349304199E-001,7.210971713066101E-001,
1.309133333333334E+009,3.890015557408333E-002,-1.177177112549543E-002,-6.586274504661560E-001,7.355294227600098E-001,3.890015557408333E-002,-1.177177112549543E-002,-6.586274504661560E-001,7.355294227600098E-001,
1.317500000000000E+009,2.461306005716324E-002,-8.623054600320756E-005,-6.419135928153992E-001,7.647532820701599E-001,2.461306005716324E-002,-8.623054600320756E-005,-6.419135928153992E-001,7.647532820701599E-001,
1.325866666666667E+009,1.990773901343346E-002,1.767930015921593E-002,-6.233065128326416E-001,7.816683650016785E-001,1.990773901343346E-002,1.767930015921593E-002,-6.233065128326416E-001,7.816683650016785E-001,
1.334233333333334E+009,2.726481109857559E-002,3.530596941709518E-002,-6.043331623077393E-001,7.855210900306702E-001,2.726481109857559E-002,3.530596941709518E-002,-6.043331623077393E-001,7.855210900306702E-001,
1.342600000000000E+009,4.270707070827484E-002,4.518344625830650E-002,-5.851378440856934E-001,8.068110346794128E-001,4.270707070827484E-002,4.518344625830650E-002,-5.851378440856934E-001,8.068110346794128E-001,
1.350966666666667E+009,6.304340809583664E-002,4.239944741129875E-002,-5.610534548759460E-001,8.185738325119019E-001,6.304340809583664E-002,4.239944741129875E-002,-5.610534548759460E-001,8.185738325119019E-001,
1.359333333333334E+009,7.831492274999619E-002,2.922911010682583E-002,-5.510331988334656E-001,8.131434321403503E-001,7.831492274999619E-002,2.922911010682583E-002,-5.510331988334656E-001,8.131434321403503E-001,
1.367700000000000E+009,8.436059951782227E-002,9.268597699701786E-003,-5.151569247245789E-001,8.346077799797058E-001,8.436059951782227E-002,9.268597699701786E-003,-5.151569247245789E-001,8.346077799797058E-001,
1.376066666666667E+009,8.071592450141907E-002,-1.329245045781136E-002,-4.982434511184692E-001,8.459616899490356E-001,8.071592450141907E-002,-1.329245045781136E-002,-4.982434511184692E-001,8.459616899490356E-001,
1.384433333333334E+009,6.336913257837296E-002,-2.866739593446255E-002,-4.840206205844879E-001,8.776883482933044E-001,6.336913257837296E-002,-2.866739593446255E-002,-4.840206205844879E-001,8.776883482933044E-001,
1.392800000000000E+009,4.256391897797585E-002,-3.147108107805252E-002,-4.603824019432068E-001,8.846731185913086E-001,4.256391897797585E-002,-3.147108107805252E-002,-4.603824019432068E-001,8.846731185913086E-001,
1.401166666666667E+009,2.204171195626259E-002,-2.405423671007156E-002,-4.372283220291138E-001,8.906692862510681E-001,2.204171195626259E-002,-2.405423671007156E-002,-4.372283220291138E-001,8.906692862510681E-001,
1.409533333333334E+009,8.257833309471607E-003,-6.399273872375488E-003,-4.075512886047363E-001,9.075406789779663E-001,8.257833309471607E-003,-6.399273872375488E-003,-4.075512886047363E-001,9.075406789779663E-001,
1.417900000000000E+009,9.053284302353859E-003,1.714304834604263E-002,-3.874189257621765E-001,9.064746499061585E-001,9.053284302353859E-003,1.714304834604263E-002,-3.874189257621765E-001,9.064746499061585E-001,
1.426266666666667E+009,1.918878220021725E-002,3.460652753710747E-002,-3.529299497604370E-001,9.291437864303589E-001,1.918878220021725E-002,3.460652753710747E-002,-3.529299497604370E-001,9.291437864303589E-001,
1.434633333333334E+009,3.965603187680244E-002,4.402450099587441E-002,-3.419561088085175E-001,9.242367744445801E-001,3.965603187680244E-002,4.402450099587441E-002,-3.419561088085175E-001,9.242367744445801E-001,
1.443000000000000E+009,6.021518260240555E-002,4.142899811267853E-002,-3.152924776077271E-001,9.326570034027100E-001,6.021518260240555E-002,4.142899811267853E-002,-3.152924776077271E-001,9.326570034027100E-001,
1.451366666666667E+009,7.682897150516510E-002,2.614632435142994E-002,-2.917875349521637E-001,9.336984157562256E-001,7.682897150516510E-002,2.614632435142994E-002,-2.917875349521637E-001,9.336984157562256E-001,
1.459733333333334E+009,8.397911489009857E-002,5.791160278022289E-003,-2.695328593254089E-001,9.618349671363831E-001,8.397911489009857E-002,5.791160278022289E-003,-2.695328593254089E-001,9.618349671363831E-001,
