% Version 1.00
%
%freq[Hz],re:Trc1_S11,im:Trc1_S11,re:Trc2_S21,im:Trc2_S21,re:Trc3_S11,im:Trc3_S11,re:Trc4_S21,im:Trc4_S21,
6.900000000000000E+008,-4.081686586141586E-002,2.983629144728184E-002,-4.938478171825409E-001,-8.567024469375610E-001,-4.081686586141586E-002,2.983629144728184E-002,-4.938478171825409E-001,-8.567024469375610E-001,
6.983666666666666E+008,-3.297532349824905E-002,3.017255291342735E-002,-5.193292498588562E-001,-8.461222648620606E-001,-3.297532349824905E-002,3.017255291342735E-002,-5.193292498588562E-001,-8.461222648620606E-001,
7.067333333333334E+008,-2.683245390653610E-002,2.553255669772625E-002,-5.423274636268616E-001,-8.206024765968323E-001,-2.683245390653610E-002,2.553255669772625E-002,-5.423274636268616E-001,-8.206024765968323E-001,
7.151000000000000E+008,-2.617709897458553E-002,1.774524524807930E-002,-5.772196054458618E-001,-8.190601468086243E-001,-2.617709897458553E-002,1.774524524807930E-002,-5.772196054458618E-001,-8.190601468086243E-001,
7.234666666666666E+008,-2.763254940509796E-002,1.236760802567005E-002,-5.906166434288025E-001,-8.038310408592224E-001,-2.763254940509796E-002,1.236760802567005E-002,-5.906166434288025E-001,-8.038310408592224E-001,
7.318333333333334E+008,-3.475571796298027E-002,9.920043870806694E-003,-6.079248785972595E-001,-7.869223356246948E-001,-3.475571796298027E-002,9.920043870806694E-003,-6.079248785972595E-001,-7.869223356246948E-001,
7.402000000000000E+008,-4.095442220568657E-002,1.156970579177141E-002,-6.186726689338684E-001,-7.619665265083313E-001,-4.095442220568657E-002,1.156970579177141E-002,-6.186726689338684E-001,-7.619665265083313E-001,
7.485666666666666E+008,-4.651413857936859E-002,1.817559450864792E-002,-6.487878561019898E-001,-7.495172619819641E-001,-4.651413857936859E-002,1.817559450864792E-002,-6.487878561019898E-001,-7.495172619819641E-001,
7.569333333333334E+008,-5.083388462662697E-002,2.759758941829205E-002,-6.672983765602112E-001,-7.365806698799133E-001,-5.083388462662697E-002,2.759758941829205E-002,-6.672983765602112E-001,-7.365806698799133E-001,
7.653000000000000E+008,-4.620422422885895E-002,3.621946647763252E-002,-6.753900647163391E-001,-7.174962162971497E-001,-4.620422422885895E-002,3.621946647763252E-002,-6.753900647163391E-001,-7.174962162971497E-001,
7.736666666666666E+008,-4.068384319543839E-002,4.255749285221100E-002,-6.879924535751343E-001,-7.135466337203980E-001,-4.068384319543839E-002,4.255749285221100E-002,-6.879924535751343E-001,-7.135466337203980E-001,
7.820333333333334E+008,-3.269995748996735E-002,4.628613591194153E-002,-7.217136025428772E-001,-6.859493255615234E-001,-3.269995748996735E-002,4.628613591194153E-002,-7.217136025428772E-001,-6.859493255615234E-001,
7.904000000000000E+008,-2.329267933964729E-002,4.494934901595116E-002,-7.308261990547180E-001,-6.675496101379395E-001,-2.329267933964729E-002,4.494934901595116E-002,-7.308261990547180E-001,-6.675496101379395E-001,
7.987666666666666E+008,-1.933245547115803E-002,3.932124003767967E-002,-7.362741231918335E-001,-6.514579653739929E-001,-1.933245547115803E-002,3.932124003767967E-002,-7.362741231918335E-001,-6.514579653739929E-001,
8.071333333333334E+008,-1.705253124237061E-002,3.249222412705421E-002,-7.629363536834717E-001,-6.198239326477051E-001,-1.705253124237061E-002,3.249222412705421E-002,-7.629363536834717E-001,-6.198239326477051E-001,
8.155000000000000E+008,-1.991733536124229E-002,2.536215446889401E-002,-7.895261645317078E-001,-6.094880104064941E-001,-1.991733536124229E-002,2.536215446889401E-002,-7.895261645317078E-001,-6.094880104064941E-001,
8.238666666666666E+008,-2.624389901757240E-002,2.310371957719326E-002,-7.962088584899902E-001,-5.861596465110779E-001,-2.624389901757240E-002,2.310371957719326E-002,-7.962088584899902E-001,-5.861596465110779E-001,
8.322333333333334E+008,-3.164607658982277E-002,2.424791082739830E-002,-8.059503436088562E-001,-5.681044459342957E-001,-3.164607658982277E-002,2.424791082739830E-002,-8.059503436088562E-001,-5.681044459342957E-001,
8.406000000000000E+008,-3.641998767852783E-002,2.735474146902561E-002,-8.179790377616882E-001,-5.460751056671143E-001,-3.641998767852783E-002,2.735474146902561E-002,-8.179790377616882E-001,-5.460751056671143E-001,
8.489666666666668E+008,-3.837656602263451E-002,3.835269063711166E-002,-8.300558924674988E-001,-5.171561241149902E-001,-3.837656602263451E-002,3.835269063711166E-002,-8.300558924674988E-001,-5.171561241149902E-001,
8.573333333333334E+008,-3.686337918043137E-002,4.621927440166473E-002,-8.323602676391602E-001,-4.869050085544586E-001,-3.686337918043137E-002,4.621927440166473E-002,-8.323602676391602E-001,-4.869050085544586E-001,
8.657000000000000E+008,-3.224702551960945E-002,5.394761264324188E-002,-8.605851531028748E-001,-4.913803040981293E-001,-3.224702551960945E-002,5.394761264324188E-002,-8.605851531028748E-001,-4.913803040981293E-001,
8.740666666666668E+008,-2.397114597260952E-002,5.897177755832672E-002,-8.665675520896912E-001,-4.667612016201019E-001,-2.397114597260952E-002,5.897177755832672E-002,-8.665675520896912E-001,-4.667612016201019E-001,
8.824333333333334E+008,-1.645074598491192E-002,6.023632735013962E-002,-8.852602243423462E-001,-4.425460696220398E-001,-1.645074598491192E-002,6.023632735013962E-002,-8.852602243423462E-001,-4.425460696220398E-001,
8.908000000000000E+008,-8.951964788138866E-003,5.651810392737389E-002,-8.992461562156677E-001,-4.252557754516602E-001,-8.951964788138866E-003,5.651810392737389E-002,-8.992461562156677E-001,-4.252557754516602E-001,
8.991666666666668E+008,-3.890548134222627E-003,5.038993433117867E-002,-8.995268344879150E-001,-3.979012966156006E-001,-3.890548134222627E-003,5.038993433117867E-002,-8.995268344879150E-001,-3.979012966156006E-001,
9.075333333333334E+008,-3.803238272666931E-003,4.240036755800247E-002,-9.134567975997925E-001,-3.727811276912689E-001,-3.803238272666931E-003,4.240036755800247E-002,-9.134567975997925E-001,-3.727811276912689E-001,
9.159000000000000E+008,-6.311532575637102E-003,3.634059429168701E-002,-9.351260662078857E-001,-3.486297726631165E-001,-6.311532575637102E-003,3.634059429168701E-002,-9.351260662078857E-001,-3.486297726631165E-001,
9.242666666666668E+008,-1.287068426609039E-002,3.617547452449799E-002,-9.264803528785706E-001,-3.266162276268005E-001,-1.287068426609039E-002,3.617547452449799E-002,-9.264803528785706E-001,-3.266162276268005E-001,
9.326333333333334E+008,-1.772882230579853E-002,3.809898346662521E-002,-9.427177309989929E-001,-3.129419386386871E-001,-1.772882230579853E-002,3.809898346662521E-002,-9.427177309989929E-001,-3.129419386386871E-001,
9.410000000000000E+008,-2.186626009643078E-002,4.226772859692574E-002,-9.535080790519714E-001,-2.774135768413544E-001,-2.186626009643078E-002,4.226772859692574E-002,-9.535080790519714E-001,-2.774135768413544E-001,
9.493666666666668E+008,-2.372341789305210E-002,5.149814486503601E-002,-9.585627317428589E-001,-2.471681833267212E-001,-2.372341789305210E-002,5.149814486503601E-002,-9.585627317428589E-001,-2.471681833267212E-001,
9.577333333333334E+008,-2.072699554264545E-002,6.122421473264694E-002,-9.648414850234985E-001,-2.335271090269089E-001,-2.072699554264545E-002,6.122421473264694E-002,-9.648414850234985E-001,-2.335271090269089E-001,
9.661000000000000E+008,-1.264488510787487E-002,6.807179003953934E-002,-9.664027690887451E-001,-1.920154094696045E-001,-1.264488510787487E-002,6.807179003953934E-002,-9.664027690887451E-001,-1.920154094696045E-001,
9.744666666666668E+008,-2.705635968595743E-003,6.869703531265259E-002,-9.645974636077881E-001,-1.812075525522232E-001,-2.705635968595743E-003,6.869703531265259E-002,-9.645974636077881E-001,-1.812075525522232E-001,
9.828333333333334E+008,5.686903372406960E-003,6.980631500482559E-002,-9.805546402931213E-001,-1.617811024188995E-001,5.686903372406960E-003,6.980631500482559E-002,-9.805546402931213E-001,-1.617811024188995E-001,
9.912000000000000E+008,1.553894765675068E-002,6.338430941104889E-002,-9.781157374382019E-001,-1.395527869462967E-001,1.553894765675068E-002,6.338430941104889E-002,-9.781157374382019E-001,-1.395527869462967E-001,
9.995666666666668E+008,1.887270249426365E-002,5.540035292506218E-002,-9.909226298332214E-001,-1.031450256705284E-001,1.887270249426365E-002,5.540035292506218E-002,-9.909226298332214E-001,-1.031450256705284E-001,
1.007933333333333E+009,2.221214398741722E-002,4.570750892162323E-002,-1.004640579223633E+000,-8.579795062541962E-002,2.221214398741722E-002,4.570750892162323E-002,-1.004640579223633E+000,-8.579795062541962E-002,
1.016300000000000E+009,1.618618518114090E-002,3.942227736115456E-002,-9.909656643867493E-001,-5.956182628870010E-002,1.618618518114090E-002,3.942227736115456E-002,-9.909656643867493E-001,-5.956182628870010E-002,
1.024666666666667E+009,8.848476223647595E-003,3.523937985301018E-002,-9.871128201484680E-001,-3.372992575168610E-002,8.848476223647595E-003,3.523937985301018E-002,-9.871128201484680E-001,-3.372992575168610E-002,
1.033033333333333E+009,3.989442717283964E-003,3.962609171867371E-002,-9.940082430839539E-001,-7.705200929194689E-003,3.989442717283964E-003,3.962609171867371E-002,-9.940082430839539E-001,-7.705200929194689E-003,
1.041400000000000E+009,-2.565399743616581E-003,4.454337432980537E-002,-9.941785335540772E-001,1.326695829629898E-002,-2.565399743616581E-003,4.454337432980537E-002,-9.941785335540772E-001,1.326695829629898E-002,
1.049766666666667E+009,1.928772690007463E-004,5.427014455199242E-002,-9.807552099227905E-001,4.905117675662041E-002,1.928772690007463E-004,5.427014455199242E-002,-9.807552099227905E-001,4.905117675662041E-002,
1.058133333333333E+009,3.886175109073520E-003,6.349117308855057E-002,-9.827684760093689E-001,7.128521054983139E-002,3.886175109073520E-003,6.349117308855057E-002,-9.827684760093689E-001,7.128521054983139E-002,
1.066500000000000E+009,1.440563239157200E-002,6.823777407407761E-002,-9.980988502502441E-001,1.049943715333939E-001,1.440563239157200E-002,6.823777407407761E-002,-9.980988502502441E-001,1.049943715333939E-001,
1.074866666666667E+009,2.709820866584778E-002,6.754714995622635E-002,-9.923306703567505E-001,1.256828904151917E-001,2.709820866584778E-002,6.754714995622635E-002,-9.923306703567505E-001,1.256828904151917E-001,
1.083233333333334E+009,3.510868549346924E-002,5.990402400493622E-002,-9.756591320037842E-001,1.468218117952347E-001,3.510868549346924E-002,5.990402400493622E-002,-9.756591320037842E-001,1.468218117952347E-001,
1.091600000000000E+009,4.113230109214783E-002,4.953912273049355E-002,-9.583362340927124E-001,1.668219566345215E-001,4.113230109214783E-002,4.953912273049355E-002,-9.583362340927124E-001,1.668219566345215E-001,
1.099966666666667E+009,4.012306034564972E-002,3.592448309063911E-002,-9.541263580322266E-001,2.048306465148926E-001,4.012306034564972E-002,3.592448309063911E-002,-9.541263580322266E-001,2.048306465148926E-001,
1.108333333333334E+009,3.202426806092262E-002,2.744333259761334E-002,-9.535638093948364E-001,2.127266824245453E-001,3.202426806092262E-002,2.744333259761334E-002,-9.535638093948364E-001,2.127266824245453E-001,
1.116700000000000E+009,2.170151844620705E-002,2.348166517913342E-002,-9.471793770790100E-001,2.462158501148224E-001,2.170151844620705E-002,2.348166517913342E-002,-9.471793770790100E-001,2.462158501148224E-001,
1.125066666666667E+009,1.063779648393393E-002,2.738107368350029E-002,-9.481420516967773E-001,2.626217305660248E-001,1.063779648393393E-002,2.738107368350029E-002,-9.481420516967773E-001,2.626217305660248E-001,
1.133433333333334E+009,2.806036965921521E-003,3.671606257557869E-002,-9.462060928344727E-001,3.072049021720886E-001,2.806036965921521E-003,3.671606257557869E-002,-9.462060928344727E-001,3.072049021720886E-001,
1.141800000000000E+009,1.235703821294010E-003,4.998544603586197E-002,-9.236331582069397E-001,3.217428922653198E-001,1.235703821294010E-003,4.998544603586197E-002,-9.236331582069397E-001,3.217428922653198E-001,
1.150166666666667E+009,9.814394637942314E-003,6.456889212131500E-002,-9.151772856712341E-001,3.228302001953125E-001,9.814394637942314E-003,6.456889212131500E-002,-9.151772856712341E-001,3.228302001953125E-001,
1.158533333333334E+009,2.498743124306202E-002,7.216823101043701E-002,-9.084025621414185E-001,3.633986413478851E-001,2.498743124306202E-002,7.216823101043701E-002,-9.084025621414185E-001,3.633986413478851E-001,
1.166900000000000E+009,4.346380382776260E-002,7.305923104286194E-002,-8.924729824066162E-001,3.838327527046204E-001,4.346380382776260E-002,7.305923104286194E-002,-8.924729824066162E-001,3.838327527046204E-001,
1.175266666666667E+009,5.890787392854691E-002,6.317741423845291E-002,-8.870345950126648E-001,4.135465323925018E-001,5.890787392854691E-002,6.317741423845291E-002,-8.870345950126648E-001,4.135465323925018E-001,
1.183633333333334E+009,7.043489068746567E-002,4.918822646141052E-002,-8.854323625564575E-001,4.256922602653503E-001,7.043489068746567E-002,4.918822646141052E-002,-8.854323625564575E-001,4.256922602653503E-001,
1.192000000000000E+009,7.024090737104416E-002,3.081471845507622E-002,-8.728408813476563E-001,4.480564296245575E-001,7.024090737104416E-002,3.081471845507622E-002,-8.728408813476563E-001,4.480564296245575E-001,
1.200366666666667E+009,6.081918254494667E-002,1.415887940675020E-002,-8.599928617477417E-001,4.696184992790222E-001,6.081918254494667E-002,1.415887940675020E-002,-8.599928617477417E-001,4.696184992790222E-001,
1.208733333333334E+009,4.591236636042595E-002,4.827927332371473E-003,-8.534396290779114E-001,5.114084482192993E-001,4.591236636042595E-002,4.827927332371473E-003,-8.534396290779114E-001,5.114084482192993E-001,
1.217100000000000E+009,3.001849912106991E-002,5.436295643448830E-003,-8.495810031890869E-001,5.207562446594238E-001,3.001849912106991E-002,5.436295643448830E-003,-8.495810031890869E-001,5.207562446594238E-001,
1.225466666666667E+009,1.741644553840160E-002,1.547254063189030E-002,-8.178402185440064E-001,5.456714034080505E-001,1.741644553840160E-002,1.547254063189030E-002,-8.178402185440064E-001,5.456714034080505E-001,
1.233833333333334E+009,1.271912921220064E-002,3.165176510810852E-002,-8.133664131164551E-001,5.569215416908264E-001,1.271912921220064E-002,3.165176510810852E-002,-8.133664131164551E-001,5.569215416908264E-001,
1.242200000000000E+009,2.068503014743328E-002,4.616752266883850E-002,-7.889271974563599E-001,5.907030105590820E-001,2.068503014743328E-002,4.616752266883850E-002,-7.889271974563599E-001,5.907030105590820E-001,
1.250566666666667E+009,3.342694044113159E-002,5.694780126214027E-002,-7.672510743141174E-001,5.966210365295410E-001,3.342694044113159E-002,5.694780126214027E-002,-7.672510743141174E-001,5.966210365295410E-001,
1.258933333333334E+009,5.385356768965721E-002,5.798545852303505E-002,-7.627346515655518E-001,6.189689636230469E-001,5.385356768965721E-002,5.798545852303505E-002,-7.627346515655518E-001,6.189689636230469E-001,
1.267300000000000E+009,7.309651374816895E-002,4.828531295061112E-002,-7.438145279884338E-001,6.335292458534241E-001,7.309651374816895E-002,4.828531295061112E-002,-7.438145279884338E-001,6.335292458534241E-001,
1.275666666666667E+009,8.224371820688248E-002,3.098941221833229E-002,-7.313098311424255E-001,6.416298151016235E-001,8.224371820688248E-002,3.098941221833229E-002,-7.313098311424255E-001,6.416298151016235E-001,
1.284033333333334E+009,8.445437997579575E-002,1.040341332554817E-002,-7.153279781341553E-001,6.843076944351196E-001,8.445437997579575E-002,1.040341332554817E-002,-7.153279781341553E-001,6.843076944351196E-001,
1.292400000000000E+009,7.391811907291412E-002,-8.284743875265122E-003,-7.027814388275147E-001,6.874525547027588E-001,7.391811907291412E-002,-8.284743875265122E-003,-7.027814388275147E-001,6.874525547027588E-001,
1.300766666666667E+009,5.426668003201485E-002,-1.720889285206795E-002,-6.806783080101013E-001,7.116225957870483E-001,5.426668003201485E-002,-1.720889285206795E-002,-6.806783080101013E-001,7.116225957870483E-001,
1.309133333333334E+009,3.361460193991661E-002,-1.637168601155281E-002,-6.565551757812500E-001,7.257477045059204E-001,3.361460193991661E-002,-1.637168601155281E-002,-6.565551757812500E-001,7.257477045059204E-001,
1.317500000000000E+009,1.863697730004787E-002,-5.166419781744480E-003,-6.446610689163208E-001,7.561245560646057E-001,1.863697730004787E-002,-5.166419781744480E-003,-6.446610689163208E-001,7.561245560646057E-001,
1.325866666666667E+009,1.336113549768925E-002,1.133707724511623E-002,-6.257729530334473E-001,7.713248729705811E-001,1.336113549768925E-002,1.133707724511623E-002,-6.257729530334473E-001,7.713248729705811E-001,
1.334233333333334E+009,2.101181633770466E-002,2.910897694528103E-002,-6.075747013092041E-001,7.774029970169067E-001,2.101181633770466E-002,2.910897694528103E-002,-6.075747013092041E-001,7.774029970169067E-001,
1.342600000000000E+009,3.632742911577225E-002,3.862089291214943E-002,-5.906739830970764E-001,7.950013279914856E-001,3.632742911577225E-002,3.862089291214943E-002,-5.906739830970764E-001,7.950013279914856E-001,
1.350966666666667E+009,5.654844269156456E-002,3.677754476666451E-002,-5.649586915969849E-001,8.077953457832336E-001,5.654844269156456E-002,3.677754476666451E-002,-5.649586915969849E-001,8.077953457832336E-001,
1.359333333333334E+009,7.183907181024551E-002,2.422994375228882E-002,-5.517411828041077E-001,8.078287243843079E-001,7.183907181024551E-002,2.422994375228882E-002,-5.517411828041077E-001,8.078287243843079E-001,
1.367700000000000E+009,7.825994491577148E-002,5.282713100314140E-003,-5.177277922630310E-001,8.271986246109009E-001,7.825994491577148E-002,5.282713100314140E-003,-5.177277922630310E-001,8.271986246109009E-001,
1.376066666666667E+009,7.485306262969971E-002,-1.627835631370544E-002,-5.027168989181519E-001,8.367177248001099E-001,7.485306262969971E-002,-1.627835631370544E-002,-5.027168989181519E-001,8.367177248001099E-001,
1.384433333333334E+009,5.782084539532661E-002,-3.160940483212471E-002,-4.879722595214844E-001,8.672427535057068E-001,5.782084539532661E-002,-3.160940483212471E-002,-4.879722595214844E-001,8.672427535057068E-001,
1.392800000000000E+009,3.672499954700470E-002,-3.432159498333931E-002,-4.668132066726685E-001,8.757208585739136E-001,3.672499954700470E-002,-3.432159498333931E-002,-4.668132066726685E-001,8.757208585739136E-001,
1.401166666666667E+009,1.531978230923414E-002,-2.737585268914700E-002,-4.401896893978119E-001,8.825465440750122E-001,1.531978230923414E-002,-2.737585268914700E-002,-4.401896893978119E-001,8.825465440750122E-001,
1.409533333333334E+009,1.151727163232863E-003,-9.976973757147789E-003,-4.116346240043640E-001,8.975902199745178E-001,1.151727163232863E-003,-9.976973757147789E-003,-4.116346240043640E-001,8.975902199745178E-001,
1.417900000000000E+009,7.675376837141812E-004,1.305149123072624E-002,-3.925110101699829E-001,8.930500745773315E-001,7.675376837141812E-004,1.305149123072624E-002,-3.925110101699829E-001,8.930500745773315E-001,
1.426266666666667E+009,1.077457796782255E-002,3.015414997935295E-002,-3.563734889030457E-001,9.203153848648071E-001,1.077457796782255E-002,3.015414997935295E-002,-3.563734889030457E-001,9.203153848648071E-001,
1.434633333333334E+009,3.111332841217518E-002,3.915676847100258E-002,-3.468415737152100E-001,9.152174592018127E-001,3.111332841217518E-002,3.915676847100258E-002,-3.468415737152100E-001,9.152174592018127E-001,
1.443000000000000E+009,5.196904763579369E-002,3.726408258080483E-002,-3.229545652866364E-001,9.237461686134338E-001,5.196904763579369E-002,3.726408258080483E-002,-3.229545652866364E-001,9.237461686134338E-001,
1.451366666666667E+009,6.880773603916168E-002,2.247558534145355E-002,-2.968406677246094E-001,9.250202178955078E-001,6.880773603916168E-002,2.247558534145355E-002,-2.968406677246094E-001,9.250202178955078E-001,
1.459733333333334E+009,7.642880082130432E-002,2.884522080421448E-003,-2.717637419700623E-001,9.518910050392151E-001,7.642880082130432E-002,2.884522080421448E-003,-2.717637419700623E-001,9.518910050392151E-001,
