% Version 1.00
%
%freq[Hz],re:Trc1_S11,im:Trc1_S11,re:Trc2_S21,im:Trc2_S21,re:Trc3_S11,im:Trc3_S11,re:Trc4_S21,im:Trc4_S21,
6.900000000000000E+008,-5.816656723618507E-002,4.517736658453941E-002,-5.130686163902283E-001,-8.440331220626831E-001,-5.816656723618507E-002,4.517736658453941E-002,-5.130686163902283E-001,-8.440331220626831E-001,
6.983666666666666E+008,-5.011468380689621E-002,4.569301009178162E-002,-5.387312769889832E-001,-8.330777883529663E-001,-5.011468380689621E-002,4.569301009178162E-002,-5.387312769889832E-001,-8.330777883529663E-001,
7.067333333333334E+008,-4.447258636355400E-002,4.141181334853172E-002,-5.612080097198486E-001,-8.068964481353760E-001,-4.447258636355400E-002,4.141181334853172E-002,-5.612080097198486E-001,-8.068964481353760E-001,
7.151000000000000E+008,-4.421867057681084E-002,3.433811664581299E-002,-5.965278148651123E-001,-8.046120405197144E-001,-4.421867057681084E-002,3.433811664581299E-002,-5.965278148651123E-001,-8.046120405197144E-001,
7.234666666666666E+008,-4.640330001711845E-002,2.966273389756680E-002,-6.095802783966065E-001,-7.890148162841797E-001,-4.640330001711845E-002,2.966273389756680E-002,-6.095802783966065E-001,-7.890148162841797E-001,
7.318333333333334E+008,-5.365404114127159E-002,2.791159413754940E-002,-6.270249485969544E-001,-7.709627151489258E-001,-5.365404114127159E-002,2.791159413754940E-002,-6.270249485969544E-001,-7.709627151489258E-001,
7.402000000000000E+008,-5.960033088922501E-002,3.052471950650215E-002,-6.375807523727417E-001,-7.457882165908814E-001,-5.960033088922501E-002,3.052471950650215E-002,-6.375807523727417E-001,-7.457882165908814E-001,
7.485666666666666E+008,-6.458542495965958E-002,3.805408254265785E-002,-6.675101518630981E-001,-7.316174507141113E-001,-6.458542495965958E-002,3.805408254265785E-002,-6.675101518630981E-001,-7.316174507141113E-001,
7.569333333333334E+008,-6.798887997865677E-002,4.823102056980133E-002,-6.855893731117249E-001,-7.183677554130554E-001,-6.798887997865677E-002,4.823102056980133E-002,-6.855893731117249E-001,-7.183677554130554E-001,
7.653000000000000E+008,-6.210378557443619E-002,5.733736231923103E-002,-6.929138302803040E-001,-6.983757019042969E-001,-6.210378557443619E-002,5.733736231923103E-002,-6.929138302803040E-001,-6.983757019042969E-001,
7.736666666666666E+008,-5.546128004789352E-002,6.411258876323700E-002,-7.055398225784302E-001,-6.947006583213806E-001,-5.546128004789352E-002,6.411258876323700E-002,-7.055398225784302E-001,-6.947006583213806E-001,
7.820333333333334E+008,-4.656771570444107E-002,6.832781434059143E-002,-7.389663457870483E-001,-6.658998131752014E-001,-4.656771570444107E-002,6.832781434059143E-002,-7.389663457870483E-001,-6.658998131752014E-001,
7.904000000000000E+008,-3.650294616818428E-002,6.735212355852127E-002,-7.476087212562561E-001,-6.474815607070923E-001,-3.650294616818428E-002,6.735212355852127E-002,-7.476087212562561E-001,-6.474815607070923E-001,
7.987666666666666E+008,-3.216270357370377E-002,6.250192970037460E-002,-7.530984282493591E-001,-6.312039494514465E-001,-3.216270357370377E-002,6.250192970037460E-002,-7.530984282493591E-001,-6.312039494514465E-001,
8.071333333333334E+008,-3.057072311639786E-002,5.647404119372368E-002,-7.795410752296448E-001,-5.984691381454468E-001,-3.057072311639786E-002,5.647404119372368E-002,-7.795410752296448E-001,-5.984691381454468E-001,
8.155000000000000E+008,-3.327376395463944E-002,4.973559826612473E-002,-8.056836724281311E-001,-5.869271755218506E-001,-3.327376395463944E-002,4.973559826612473E-002,-8.056836724281311E-001,-5.869271755218506E-001,
8.238666666666666E+008,-3.988905996084213E-002,4.838104546070099E-002,-8.118651509284973E-001,-5.627758502960205E-001,-3.988905996084213E-002,4.838104546070099E-002,-8.118651509284973E-001,-5.627758502960205E-001,
8.322333333333334E+008,-4.511535540223122E-002,5.035287514328957E-002,-8.208889961242676E-001,-5.448907613754273E-001,-4.511535540223122E-002,5.035287514328957E-002,-8.208889961242676E-001,-5.448907613754273E-001,
8.406000000000000E+008,-4.942924529314041E-002,5.406323075294495E-002,-8.326535820960999E-001,-5.217071175575256E-001,-4.942924529314041E-002,5.406323075294495E-002,-8.326535820960999E-001,-5.217071175575256E-001,
8.489666666666668E+008,-5.037979781627655E-002,6.573746353387833E-002,-8.441887497901917E-001,-4.923320710659027E-001,-5.037979781627655E-002,6.573746353387833E-002,-8.441887497901917E-001,-4.923320710659027E-001,
8.573333333333334E+008,-4.760860279202461E-002,7.371467351913452E-002,-8.457153439521790E-001,-4.614688158035278E-001,-4.760860279202461E-002,7.371467351913452E-002,-8.457153439521790E-001,-4.614688158035278E-001,
8.657000000000000E+008,-4.174791276454926E-002,8.122434467077255E-002,-8.735527396202087E-001,-4.649895727634430E-001,-4.174791276454926E-002,8.122434467077255E-002,-8.735527396202087E-001,-4.649895727634430E-001,
8.740666666666668E+008,-3.219504281878471E-002,8.638892322778702E-002,-8.790997862815857E-001,-4.403545260429382E-001,-3.219504281878471E-002,8.638892322778702E-002,-8.790997862815857E-001,-4.403545260429382E-001,
8.824333333333334E+008,-2.381450869143009E-002,8.793489634990692E-002,-8.973146677017212E-001,-4.157451987266541E-001,-2.381450869143009E-002,8.793489634990692E-002,-8.973146677017212E-001,-4.157451987266541E-001,
8.908000000000000E+008,-1.560401916503906E-002,8.467377722263336E-002,-9.106353521347046E-001,-3.978011310100555E-001,-1.560401916503906E-002,8.467377722263336E-002,-9.106353521347046E-001,-3.978011310100555E-001,
8.991666666666668E+008,-9.961255826056004E-003,7.884792238473892E-002,-9.102959036827087E-001,-3.703446686267853E-001,-9.961255826056004E-003,7.884792238473892E-002,-9.102959036827087E-001,-3.703446686267853E-001,
9.075333333333334E+008,-9.369645267724991E-003,7.192774862051010E-002,-9.243856072425842E-001,-3.448804914951325E-001,-9.369645267724991E-003,7.192774862051010E-002,-9.243856072425842E-001,-3.448804914951325E-001,
9.159000000000000E+008,-1.232485659420490E-002,6.647245585918427E-002,-9.448176026344299E-001,-3.189810514450073E-001,-1.232485659420490E-002,6.647245585918427E-002,-9.448176026344299E-001,-3.189810514450073E-001,
9.242666666666668E+008,-1.861265860497952E-002,6.719082593917847E-002,-9.359467029571533E-001,-2.973480522632599E-001,-1.861265860497952E-002,6.719082593917847E-002,-9.359467029571533E-001,-2.973480522632599E-001,
9.326333333333334E+008,-2.318365313112736E-002,6.987313926219940E-002,-9.517332315444946E-001,-2.824330329895020E-001,-2.318365313112736E-002,6.987313926219940E-002,-9.517332315444946E-001,-2.824330329895020E-001,
9.410000000000000E+008,-2.638264186680317E-002,7.451702654361725E-002,-9.613803029060364E-001,-2.460565268993378E-001,-2.638264186680317E-002,7.451702654361725E-002,-9.613803029060364E-001,-2.460565268993378E-001,
9.493666666666668E+008,-2.695142291486263E-002,8.391831070184708E-002,-9.653242230415344E-001,-2.152926474809647E-001,-2.695142291486263E-002,8.391831070184708E-002,-9.653242230415344E-001,-2.152926474809647E-001,
9.577333333333334E+008,-2.245445549488068E-002,9.393374621868134E-002,-9.704483747482300E-001,-2.016306519508362E-001,-2.245445549488068E-002,9.393374621868134E-002,-9.704483747482300E-001,-2.016306519508362E-001,
9.661000000000000E+008,-1.313872449100018E-002,1.003750935196877E-001,-9.707811474800110E-001,-1.595371663570404E-001,-1.313872449100018E-002,1.003750935196877E-001,-9.707811474800110E-001,-1.595371663570404E-001,
9.744666666666668E+008,-1.752922195009887E-003,1.000503152608872E-001,-9.686833620071411E-001,-1.495750099420548E-001,-1.752922195009887E-003,1.000503152608872E-001,-9.686833620071411E-001,-1.495750099420548E-001,
9.828333333333334E+008,7.710550911724567E-003,1.011234894394875E-001,-9.838193058967590E-001,-1.295259445905685E-001,7.710550911724567E-003,1.011234894394875E-001,-9.838193058967590E-001,-1.295259445905685E-001,
9.912000000000000E+008,1.835952699184418E-002,9.459535032510757E-002,-9.807196855545044E-001,-1.073889210820198E-001,1.835952699184418E-002,9.459535032510757E-002,-9.807196855545044E-001,-1.073889210820198E-001,
9.995666666666668E+008,2.205958403646946E-002,8.703186362981796E-002,-9.923368096351624E-001,-7.034082710742950E-002,2.205958403646946E-002,8.703186362981796E-002,-9.923368096351624E-001,-7.034082710742950E-002,
1.007933333333333E+009,2.593882009387016E-002,7.775574922561646E-002,-1.005927562713623E+000,-5.246142670512199E-002,2.593882009387016E-002,7.775574922561646E-002,-1.005927562713623E+000,-5.246142670512199E-002,
1.016300000000000E+009,2.013598009943962E-002,7.213057577610016E-002,-9.920735359191895E-001,-2.619159035384655E-002,2.013598009943962E-002,7.213057577610016E-002,-9.920735359191895E-001,-2.619159035384655E-002,
1.024666666666667E+009,1.267425529658794E-002,6.883806735277176E-002,-9.873510599136353E-001,4.962667007930577E-004,1.267425529658794E-002,6.883806735277176E-002,-9.873510599136353E-001,4.962667007930577E-004,
1.033033333333333E+009,8.400971069931984E-003,7.397592067718506E-002,-9.934757947921753E-001,2.729953452944756E-002,8.400971069931984E-003,7.397592067718506E-002,-9.934757947921753E-001,2.729953452944756E-002,
1.041400000000000E+009,2.610647352412343E-003,7.914577424526215E-002,-9.924741387367249E-001,4.849846288561821E-002,2.610647352412343E-003,7.914577424526215E-002,-9.924741387367249E-001,4.849846288561821E-002,
1.049766666666667E+009,6.961208768188953E-003,8.832895755767822E-002,-9.773421287536621E-001,8.447031676769257E-002,6.961208768188953E-003,8.832895755767822E-002,-9.773421287536621E-001,8.447031676769257E-002,
1.058133333333333E+009,1.220873184502125E-002,9.735304117202759E-002,-9.784069657325745E-001,1.062157303094864E-001,1.220873184502125E-002,9.735304117202759E-002,-9.784069657325745E-001,1.062157303094864E-001,
1.066500000000000E+009,2.429091557860375E-002,1.009280085563660E-001,-9.921447634696960E-001,1.412739902734757E-001,2.429091557860375E-002,1.009280085563660E-001,-9.921447634696960E-001,1.412739902734757E-001,
1.074866666666667E+009,3.847049921751022E-002,9.892516583204269E-002,-9.854258894920349E-001,1.610431671142578E-001,3.847049921751022E-002,9.892516583204269E-002,-9.854258894920349E-001,1.610431671142578E-001,
1.083233333333334E+009,4.730587452650070E-002,9.050279855728149E-002,-9.685553908348084E-001,1.811564415693283E-001,4.730587452650070E-002,9.050279855728149E-002,-9.685553908348084E-001,1.811564415693283E-001,
1.091600000000000E+009,5.385471880435944E-002,7.964298129081726E-002,-9.507545232772827E-001,2.005107700824738E-001,5.385471880435944E-002,7.964298129081726E-002,-9.507545232772827E-001,2.005107700824738E-001,
1.099966666666667E+009,5.272558331489563E-002,6.637161970138550E-002,-9.455124735832214E-001,2.391382753849030E-001,5.272558331489563E-002,6.637161970138550E-002,-9.455124735832214E-001,2.391382753849030E-001,
1.108333333333334E+009,4.463255777955055E-002,5.900593101978302E-002,-9.455244541168213E-001,2.476834058761597E-001,4.463255777955055E-002,5.900593101978302E-002,-9.455244541168213E-001,2.476834058761597E-001,
1.116700000000000E+009,3.457839414477348E-002,5.648129805922508E-002,-9.374396204948425E-001,2.818000316619873E-001,3.457839414477348E-002,5.648129805922508E-002,-9.374396204948425E-001,2.818000316619873E-001,
1.125066666666667E+009,2.440479025244713E-002,6.179438903927803E-002,-9.373647570610046E-001,2.985867261886597E-001,2.440479025244713E-002,6.179438903927803E-002,-9.373647570610046E-001,2.985867261886597E-001,
1.133433333333334E+009,1.789357326924801E-002,7.190783321857452E-002,-9.332621097564697E-001,3.436087667942047E-001,1.789357326924801E-002,7.190783321857452E-002,-9.332621097564697E-001,3.436087667942047E-001,
1.141800000000000E+009,1.824134588241577E-002,8.529509603977203E-002,-9.092797040939331E-001,3.576039373874664E-001,1.824134588241577E-002,8.529509603977203E-002,-9.092797040939331E-001,3.576039373874664E-001,
1.150166666666667E+009,2.845938876271248E-002,9.874942153692246E-002,-9.002458453178406E-001,3.578209280967712E-001,2.845938876271248E-002,9.874942153692246E-002,-9.002458453178406E-001,3.578209280967712E-001,
1.158533333333334E+009,4.567005112767220E-002,1.049571186304092E-001,-8.913570046424866E-001,3.977158367633820E-001,4.567005112767220E-002,1.049571186304092E-001,-8.913570046424866E-001,3.977158367633820E-001,
1.166900000000000E+009,6.563239544630051E-002,1.035507097840309E-001,-8.746449351310730E-001,4.175838828086853E-001,6.563239544630051E-002,1.035507097840309E-001,-8.746449351310730E-001,4.175838828086853E-001,
1.175266666666667E+009,8.135852962732315E-002,9.164278954267502E-002,-8.684714436531067E-001,4.462797343730927E-001,8.135852962732315E-002,9.164278954267502E-002,-8.684714436531067E-001,4.462797343730927E-001,
1.183633333333334E+009,9.311711043119431E-002,7.612808793783188E-002,-8.666892647743225E-001,4.584668278694153E-001,9.311711043119431E-002,7.612808793783188E-002,-8.666892647743225E-001,4.584668278694153E-001,
1.192000000000000E+009,9.261932224035263E-002,5.728196352720261E-002,-8.537924885749817E-001,4.803484380245209E-001,9.261932224035263E-002,5.728196352720261E-002,-8.537924885749817E-001,4.803484380245209E-001,
1.200366666666667E+009,8.282550424337387E-002,4.121235758066177E-002,-8.408788442611694E-001,5.019580125808716E-001,8.282550424337387E-002,4.121235758066177E-002,-8.408788442611694E-001,5.019580125808716E-001,
1.208733333333334E+009,6.814828515052795E-002,3.322048485279083E-002,-8.331915140151978E-001,5.439671874046326E-001,6.814828515052795E-002,3.322048485279083E-002,-8.331915140151978E-001,5.439671874046326E-001,
1.217100000000000E+009,5.305110290646553E-002,3.501217812299728E-002,-8.284485340118408E-001,5.546188950538635E-001,5.305110290646553E-002,3.501217812299728E-002,-8.284485340118408E-001,5.546188950538635E-001,
1.225466666666667E+009,4.208595305681229E-002,4.684605821967125E-002,-7.948906421661377E-001,5.787264704704285E-001,4.208595305681229E-002,4.684605821967125E-002,-7.948906421661377E-001,5.787264704704285E-001,
1.233833333333334E+009,3.922625258564949E-002,6.337144225835800E-002,-7.889596223831177E-001,5.902181863784790E-001,3.922625258564949E-002,6.337144225835800E-002,-7.889596223831177E-001,5.902181863784790E-001,
1.242200000000000E+009,4.923334717750549E-002,7.683866471052170E-002,-7.620847225189209E-001,6.229248046875000E-001,4.923334717750549E-002,7.683866471052170E-002,-7.620847225189209E-001,6.229248046875000E-001,
1.250566666666667E+009,6.367606669664383E-002,8.556891977787018E-002,-7.397760152816773E-001,6.272035241127014E-001,6.367606669664383E-002,8.556891977787018E-002,-7.397760152816773E-001,6.272035241127014E-001,
1.258933333333334E+009,8.436049520969391E-002,8.396007120609283E-002,-7.337642312049866E-001,6.484075784683228E-001,8.436049520969391E-002,8.396007120609283E-002,-7.337642312049866E-001,6.484075784683228E-001,
1.267300000000000E+009,1.039680168032646E-001,7.171809673309326E-002,-7.146511077880859E-001,6.622247099876404E-001,1.039680168032646E-001,7.171809673309326E-002,-7.146511077880859E-001,6.622247099876404E-001,
1.275666666666667E+009,1.124270483851433E-001,5.295405909419060E-002,-7.025340795516968E-001,6.693817377090454E-001,1.124270483851433E-001,5.295405909419060E-002,-7.025340795516968E-001,6.693817377090454E-001,
1.284033333333334E+009,1.138924360275269E-001,3.142450004816055E-002,-6.856508255004883E-001,7.112971544265747E-001,1.138924360275269E-001,3.142450004816055E-002,-6.856508255004883E-001,7.112971544265747E-001,
1.292400000000000E+009,1.033009439706802E-001,1.328713260591030E-002,-6.739683747291565E-001,7.147602438926697E-001,1.033009439706802E-001,1.328713260591030E-002,-6.739683747291565E-001,7.147602438926697E-001,
1.300766666666667E+009,8.412306010723114E-002,5.517763085663319E-003,-6.507980823516846E-001,7.391453385353088E-001,8.412306010723114E-002,5.517763085663319E-003,-6.507980823516846E-001,7.391453385353088E-001,
1.309133333333334E+009,6.481990218162537E-002,7.678988389670849E-003,-6.254133582115173E-001,7.534983754158020E-001,6.481990218162537E-002,7.678988389670849E-003,-6.254133582115173E-001,7.534983754158020E-001,
1.317500000000000E+009,5.161179602146149E-002,2.027063257992268E-002,-6.112303733825684E-001,7.838498353958130E-001,5.161179602146149E-002,2.027063257992268E-002,-6.112303733825684E-001,7.838498353958130E-001,
1.325866666666667E+009,4.883809760212898E-002,3.726918995380402E-002,-5.905745625495911E-001,7.982134819030762E-001,4.883809760212898E-002,3.726918995380402E-002,-5.905745625495911E-001,7.982134819030762E-001,
1.334233333333334E+009,5.878846719861031E-002,5.372383072972298E-002,-5.713192820549011E-001,8.033298254013062E-001,5.878846719861031E-002,5.372383072972298E-002,-5.713192820549011E-001,8.033298254013062E-001,
1.342600000000000E+009,7.552850246429443E-002,6.101930886507034E-002,-5.530867576599121E-001,8.195878267288208E-001,7.552850246429443E-002,6.101930886507034E-002,-5.530867576599121E-001,8.195878267288208E-001,
1.350966666666667E+009,9.619593620300293E-002,5.607773363590241E-002,-5.267219543457031E-001,8.308439254760742E-001,9.619593620300293E-002,5.607773363590241E-002,-5.267219543457031E-001,8.308439254760742E-001,
1.359333333333334E+009,1.107038930058479E-001,4.090425744652748E-002,-5.133270025253296E-001,8.298609852790833E-001,1.107038930058479E-001,4.090425744652748E-002,-5.133270025253296E-001,8.298609852790833E-001,
1.367700000000000E+009,1.156814992427826E-001,2.008780837059021E-002,-4.799311161041260E-001,8.472095727920532E-001,1.156814992427826E-001,2.008780837059021E-002,-4.799311161041260E-001,8.472095727920532E-001,
1.376066666666667E+009,1.112992018461227E-001,-2.553752623498440E-003,-4.645499587059021E-001,8.565712571144104E-001,1.112992018461227E-001,-2.553752623498440E-003,-4.645499587059021E-001,8.565712571144104E-001,
1.384433333333334E+009,9.371870756149292E-002,-1.728045381605625E-002,-4.488744139671326E-001,8.866969347000122E-001,9.371870756149292E-002,-1.728045381605625E-002,-4.488744139671326E-001,8.866969347000122E-001,
1.392800000000000E+009,7.351375371217728E-002,-1.877091825008392E-002,-4.274059236049652E-001,8.957227468490601E-001,7.351375371217728E-002,-1.877091825008392E-002,-4.274059236049652E-001,8.957227468490601E-001,
1.401166666666667E+009,5.423123762011528E-002,-1.037744712084532E-002,-4.001570045948029E-001,9.025981426239014E-001,5.423123762011528E-002,-1.037744712084532E-002,-4.001570045948029E-001,9.025981426239014E-001,
1.409533333333334E+009,4.243158921599388E-002,6.763880141079426E-003,-3.693588972091675E-001,9.166126847267151E-001,4.243158921599388E-002,6.763880141079426E-003,-3.693588972091675E-001,9.166126847267151E-001,
1.417900000000000E+009,4.558876529335976E-002,2.978491969406605E-002,-3.496873378753662E-001,9.120625853538513E-001,4.558876529335976E-002,2.978491969406605E-002,-3.496873378753662E-001,9.120625853538513E-001,
1.426266666666667E+009,5.804000049829483E-002,4.543378204107285E-002,-3.110352456569672E-001,9.367714524269104E-001,5.804000049829483E-002,4.543378204107285E-002,-3.110352456569672E-001,9.367714524269104E-001,
1.434633333333334E+009,7.942125201225281E-002,5.152658000588417E-002,-3.013299405574799E-001,9.297722578048706E-001,7.942125201225281E-002,5.152658000588417E-002,-3.013299405574799E-001,9.297722578048706E-001,
1.443000000000000E+009,1.000376865267754E-001,4.639392718672752E-002,-2.765547037124634E-001,9.363676905632019E-001,1.000376865267754E-001,4.639392718672752E-002,-2.765547037124634E-001,9.363676905632019E-001,
1.451366666666667E+009,1.151738688349724E-001,2.885465882718563E-002,-2.510365247726440E-001,9.353739619255066E-001,1.151738688349724E-001,2.885465882718563E-002,-2.510365247726440E-001,9.353739619255066E-001,
1.459733333333334E+009,1.205386668443680E-001,7.227615453302860E-003,-2.248410582542419E-001,9.614883065223694E-001,1.205386668443680E-001,7.227615453302860E-003,-2.248410582542419E-001,9.614883065223694E-001,
