% Version 1.00
%
%freq[Hz],re:Trc1_S11,im:Trc1_S11,re:Trc2_S21,im:Trc2_S21,re:Trc3_S11,im:Trc3_S11,re:Trc4_S21,im:Trc4_S21,
6.900000000000000E+008,-5.529292300343514E-002,4.501432925462723E-002,-5.108782649040222E-001,-8.454905152320862E-001,-5.529292300343514E-002,4.501432925462723E-002,-5.108782649040222E-001,-8.454905152320862E-001,
6.983666666666666E+008,-4.710855707526207E-002,4.549902305006981E-002,-5.364817976951599E-001,-8.342532515525818E-001,-4.710855707526207E-002,4.549902305006981E-002,-5.364817976951599E-001,-8.342532515525818E-001,
7.067333333333334E+008,-4.119369015097618E-002,4.126335680484772E-002,-5.587326288223267E-001,-8.084388375282288E-001,-4.119369015097618E-002,4.126335680484772E-002,-5.587326288223267E-001,-8.084388375282288E-001,
7.151000000000000E+008,-4.050639644265175E-002,3.409893810749054E-002,-5.942494869232178E-001,-8.059867620468140E-001,-4.050639644265175E-002,3.409893810749054E-002,-5.942494869232178E-001,-8.059867620468140E-001,
7.234666666666666E+008,-4.229716211557388E-002,2.939829789102078E-002,-6.074339151382446E-001,-7.904274463653565E-001,-4.229716211557388E-002,2.939829789102078E-002,-6.074339151382446E-001,-7.904274463653565E-001,
7.318333333333334E+008,-4.930976405739784E-002,2.759878337383270E-002,-6.247873306274414E-001,-7.725014686584473E-001,-4.930976405739784E-002,2.759878337383270E-002,-6.247873306274414E-001,-7.725014686584473E-001,
7.402000000000000E+008,-5.517527461051941E-002,3.003505431115627E-002,-6.352756619453430E-001,-7.469206452369690E-001,-5.517527461051941E-002,3.003505431115627E-002,-6.352756619453430E-001,-7.469206452369690E-001,
7.485666666666666E+008,-6.027869135141373E-002,3.746980056166649E-002,-6.651043891906738E-001,-7.333918213844299E-001,-6.027869135141373E-002,3.746980056166649E-002,-6.651043891906738E-001,-7.333918213844299E-001,
7.569333333333334E+008,-6.395399570465088E-002,4.754505306482315E-002,-6.833435893058777E-001,-7.195926308631897E-001,-6.395399570465088E-002,4.754505306482315E-002,-6.833435893058777E-001,-7.195926308631897E-001,
7.653000000000000E+008,-5.844879895448685E-002,5.643263831734657E-002,-6.907267570495606E-001,-7.007592320442200E-001,-5.844879895448685E-002,5.643263831734657E-002,-6.907267570495606E-001,-7.007592320442200E-001,
7.736666666666666E+008,-5.215883255004883E-002,6.308616697788239E-002,-7.032244205474854E-001,-6.963394880294800E-001,-5.215883255004883E-002,6.308616697788239E-002,-7.032244205474854E-001,-6.963394880294800E-001,
7.820333333333334E+008,-4.349871724843979E-002,6.709318608045578E-002,-7.366704940795898E-001,-6.678916811943054E-001,-4.349871724843979E-002,6.709318608045578E-002,-7.366704940795898E-001,-6.678916811943054E-001,
7.904000000000000E+008,-3.358245640993118E-002,6.597851961851120E-002,-7.455834746360779E-001,-6.495594382286072E-001,-3.358245640993118E-002,6.597851961851120E-002,-7.455834746360779E-001,-6.495594382286072E-001,
7.987666666666666E+008,-2.912320755422115E-002,6.090139970183373E-002,-7.506484985351563E-001,-6.336488127708435E-001,-2.912320755422115E-002,6.090139970183373E-002,-7.506484985351563E-001,-6.336488127708435E-001,
8.071333333333334E+008,-2.719792537391186E-002,5.467156320810318E-002,-7.772253155708313E-001,-6.006994843482971E-001,-2.719792537391186E-002,5.467156320810318E-002,-7.772253155708313E-001,-6.006994843482971E-001,
8.155000000000000E+008,-2.968086302280426E-002,4.784916713833809E-002,-8.037410974502564E-001,-5.892399549484253E-001,-2.968086302280426E-002,4.784916713833809E-002,-8.037410974502564E-001,-5.892399549484253E-001,
8.238666666666666E+008,-3.597567230463028E-002,4.639438539743424E-002,-8.097488284111023E-001,-5.655006170272827E-001,-3.597567230463028E-002,4.639438539743424E-002,-8.097488284111023E-001,-5.655006170272827E-001,
8.322333333333334E+008,-4.104847460985184E-002,4.835616424679756E-002,-8.190631270408630E-001,-5.469985008239746E-001,-4.104847460985184E-002,4.835616424679756E-002,-8.190631270408630E-001,-5.469985008239746E-001,
8.406000000000000E+008,-4.516902938485146E-002,5.213624238967896E-002,-8.305760025978088E-001,-5.242613554000855E-001,-4.516902938485146E-002,5.213624238967896E-002,-8.305760025978088E-001,-5.242613554000855E-001,
8.489666666666668E+008,-4.625464975833893E-002,6.375635415315628E-002,-8.421775698661804E-001,-4.949104785919190E-001,-4.625464975833893E-002,6.375635415315628E-002,-8.421775698661804E-001,-4.949104785919190E-001,
8.573333333333334E+008,-4.379855096340179E-002,7.179481536149979E-002,-8.435078859329224E-001,-4.641458392143250E-001,-4.379855096340179E-002,7.179481536149979E-002,-8.435078859329224E-001,-4.641458392143250E-001,
8.657000000000000E+008,-3.830396011471748E-002,7.939320057630539E-002,-8.714095354080200E-001,-4.679751992225647E-001,-3.830396011471748E-002,7.939320057630539E-002,-8.714095354080200E-001,-4.679751992225647E-001,
8.740666666666668E+008,-2.906424552202225E-002,8.448196947574616E-002,-8.770531415939331E-001,-4.429194927215576E-001,-2.906424552202225E-002,8.448196947574616E-002,-8.770531415939331E-001,-4.429194927215576E-001,
8.824333333333334E+008,-2.091356553137302E-002,8.594087511301041E-002,-8.949778676033020E-001,-4.183863699436188E-001,-2.091356553137302E-002,8.594087511301041E-002,-8.949778676033020E-001,-4.183863699436188E-001,
8.908000000000000E+008,-1.274378504604101E-002,8.236706256866455E-002,-9.086693525314331E-001,-4.008083343505859E-001,-1.274378504604101E-002,8.236706256866455E-002,-9.086693525314331E-001,-4.008083343505859E-001,
8.991666666666668E+008,-7.097080349922180E-003,7.623175531625748E-002,-9.082887172698975E-001,-3.734638392925263E-001,-7.097080349922180E-003,7.623175531625748E-002,-9.082887172698975E-001,-3.734638392925263E-001,
9.075333333333334E+008,-6.370049901306629E-003,6.895026564598084E-002,-9.224104285240173E-001,-3.478659093379974E-001,-6.370049901306629E-003,6.895026564598084E-002,-9.224104285240173E-001,-3.478659093379974E-001,
9.159000000000000E+008,-9.006379172205925E-003,6.326872110366821E-002,-9.430605173110962E-001,-3.223569989204407E-001,-9.006379172205925E-003,6.326872110366821E-002,-9.430605173110962E-001,-3.223569989204407E-001,
9.242666666666668E+008,-1.512413099408150E-002,6.380467116832733E-002,-9.344686269760132E-001,-3.006114959716797E-001,-1.512413099408150E-002,6.380467116832733E-002,-9.344686269760132E-001,-3.006114959716797E-001,
9.326333333333334E+008,-1.949810236692429E-002,6.638456881046295E-002,-9.501590132713318E-001,-2.856971919536591E-001,-1.949810236692429E-002,6.638456881046295E-002,-9.501590132713318E-001,-2.856971919536591E-001,
9.410000000000000E+008,-2.278232015669346E-002,7.106405496597290E-002,-9.598231911659241E-001,-2.495155185461044E-001,-2.278232015669346E-002,7.106405496597290E-002,-9.598231911659241E-001,-2.495155185461044E-001,
9.493666666666668E+008,-2.351317554712296E-002,8.050033450126648E-002,-9.637994170188904E-001,-2.186089456081390E-001,-2.351317554712296E-002,8.050033450126648E-002,-9.637994170188904E-001,-2.186089456081390E-001,
9.577333333333334E+008,-1.932997256517410E-002,9.060385078191757E-002,-9.694619774818420E-001,-2.050416022539139E-001,-1.932997256517410E-002,9.060385078191757E-002,-9.694619774818420E-001,-2.050416022539139E-001,
9.661000000000000E+008,-1.037671323865652E-002,9.721661359071732E-002,-9.696126580238342E-001,-1.628865599632263E-001,-1.037671323865652E-002,9.721661359071732E-002,-9.696126580238342E-001,-1.628865599632263E-001,
9.744666666666668E+008,5.450495518743992E-004,9.705940634012222E-002,-9.672042727470398E-001,-1.531078517436981E-001,5.450495518743992E-004,9.705940634012222E-002,-9.672042727470398E-001,-1.531078517436981E-001,
9.828333333333334E+008,9.686655364930630E-003,9.799377620220184E-002,-9.824964404106140E-001,-1.330587565898895E-001,9.686655364930630E-003,9.799377620220184E-002,-9.824964404106140E-001,-1.330587565898895E-001,
9.912000000000000E+008,2.015510760247707E-002,9.130404889583588E-002,-9.797367453575134E-001,-1.111235916614533E-001,2.015510760247707E-002,9.130404889583588E-002,-9.797367453575134E-001,-1.111235916614533E-001,
9.995666666666668E+008,2.394201420247555E-002,8.344343304634094E-002,-9.914330840110779E-001,-7.384457439184189E-002,2.394201420247555E-002,8.344343304634094E-002,-9.914330840110779E-001,-7.384457439184189E-002,
1.007933333333333E+009,2.787863463163376E-002,7.386004924774170E-002,-1.004959106445313E+000,-5.621888488531113E-002,2.787863463163376E-002,7.386004924774170E-002,-1.004959106445313E+000,-5.621888488531113E-002,
1.016300000000000E+009,2.234798111021519E-002,6.791747361421585E-002,-9.910597205162048E-001,-2.989611029624939E-002,2.234798111021519E-002,6.791747361421585E-002,-9.910597205162048E-001,-2.989611029624939E-002,
1.024666666666667E+009,1.518607977777720E-002,6.444804370403290E-002,-9.866819977760315E-001,-3.405604511499405E-003,1.518607977777720E-002,6.444804370403290E-002,-9.866819977760315E-001,-3.405604511499405E-003,
1.033033333333333E+009,1.115048211067915E-002,6.940899044275284E-002,-9.924014806747437E-001,2.312756516039372E-002,1.115048211067915E-002,6.940899044275284E-002,-9.924014806747437E-001,2.312756516039372E-002,
1.041400000000000E+009,5.403215531259775E-003,7.464330643415451E-002,-9.918348789215088E-001,4.443016648292542E-002,5.403215531259775E-003,7.464330643415451E-002,-9.918348789215088E-001,4.443016648292542E-002,
1.049766666666667E+009,9.519232437014580E-003,8.396995067596436E-002,-9.767694473266602E-001,8.027013391256332E-002,9.519232437014580E-003,8.396995067596436E-002,-9.767694473266602E-001,8.027013391256332E-002,
1.058133333333333E+009,1.448248326778412E-002,9.322694689035416E-002,-9.779393076896668E-001,1.022038012742996E-001,1.448248326778412E-002,9.322694689035416E-002,-9.779393076896668E-001,1.022038012742996E-001,
1.066500000000000E+009,2.602090500295162E-002,9.713382273912430E-002,-9.918102025985718E-001,1.369075030088425E-001,2.602090500295162E-002,9.713382273912430E-002,-9.918102025985718E-001,1.369075030088425E-001,
1.074866666666667E+009,3.970838338136673E-002,9.545522183179855E-002,-9.850839972496033E-001,1.567679941654205E-001,3.970838338136673E-002,9.545522183179855E-002,-9.850839972496033E-001,1.567679941654205E-001,
1.083233333333334E+009,4.814091324806213E-002,8.711355924606323E-002,-9.681269526481628E-001,1.772978603839874E-001,4.814091324806213E-002,8.711355924606323E-002,-9.681269526481628E-001,1.772978603839874E-001,
1.091600000000000E+009,5.451642721891403E-002,7.627921551465988E-002,-9.506191015243530E-001,1.965476423501968E-001,5.451642721891403E-002,7.627921551465988E-002,-9.506191015243530E-001,1.965476423501968E-001,
1.099966666666667E+009,5.346716567873955E-002,6.274467706680298E-002,-9.452537298202515E-001,2.351530045270920E-001,5.346716567873955E-002,6.274467706680298E-002,-9.452537298202515E-001,2.351530045270920E-001,
1.108333333333334E+009,4.563397169113159E-002,5.485374107956886E-002,-9.452425837516785E-001,2.432011514902115E-001,4.563397169113159E-002,5.485374107956886E-002,-9.452425837516785E-001,2.432011514902115E-001,
1.116700000000000E+009,3.585691004991531E-002,5.176941305398941E-002,-9.374768137931824E-001,2.770341932773590E-001,3.585691004991531E-002,5.176941305398941E-002,-9.374768137931824E-001,2.770341932773590E-001,
1.125066666666667E+009,2.597003988921642E-002,5.651116743683815E-002,-9.376463294029236E-001,2.940020561218262E-001,2.597003988921642E-002,5.651116743683815E-002,-9.376463294029236E-001,2.940020561218262E-001,
1.133433333333334E+009,1.955870352685452E-002,6.614777445793152E-002,-9.336906075477600E-001,3.389093279838562E-001,1.955870352685452E-002,6.614777445793152E-002,-9.336906075477600E-001,3.389093279838562E-001,
1.141800000000000E+009,1.979132927954197E-002,7.938665151596069E-002,-9.098465442657471E-001,3.528234958648682E-001,1.979132927954197E-002,7.938665151596069E-002,-9.098465442657471E-001,3.528234958648682E-001,
1.150166666666667E+009,2.980617433786392E-002,9.305644035339356E-002,-9.009293913841248E-001,3.535121381282806E-001,2.980617433786392E-002,9.305644035339356E-002,-9.009293913841248E-001,3.535121381282806E-001,
1.158533333333334E+009,4.662556573748589E-002,9.955853223800659E-002,-8.924164772033691E-001,3.933983445167542E-001,4.662556573748589E-002,9.955853223800659E-002,-8.924164772033691E-001,3.933983445167542E-001,
1.166900000000000E+009,6.602852046489716E-002,9.868272393941879E-002,-8.753818869590759E-001,4.133927822113037E-001,6.602852046489716E-002,9.868272393941879E-002,-8.753818869590759E-001,4.133927822113037E-001,
1.175266666666667E+009,8.137890696525574E-002,8.733662962913513E-002,-8.693818449974060E-001,4.420756697654724E-001,8.137890696525574E-002,8.733662962913513E-002,-8.693818449974060E-001,4.420756697654724E-001,
1.183633333333334E+009,9.278322011232376E-002,7.222236692905426E-002,-8.678581714630127E-001,4.538668096065521E-001,9.278322011232376E-002,7.222236692905426E-002,-8.678581714630127E-001,4.538668096065521E-001,
1.192000000000000E+009,9.217759966850281E-002,5.334774777293205E-002,-8.548611998558044E-001,4.764172732830048E-001,9.217759966850281E-002,5.334774777293205E-002,-8.548611998558044E-001,4.764172732830048E-001,
1.200366666666667E+009,8.240170776844025E-002,3.708547353744507E-002,-8.419013619422913E-001,4.974974393844605E-001,8.240170776844025E-002,3.708547353744507E-002,-8.419013619422913E-001,4.974974393844605E-001,
1.208733333333334E+009,6.791450083255768E-002,2.849617600440979E-002,-8.341441154479981E-001,5.397491455078125E-001,6.791450083255768E-002,2.849617600440979E-002,-8.341441154479981E-001,5.397491455078125E-001,
1.217100000000000E+009,5.288170650601387E-002,2.963541634380817E-002,-8.301500678062439E-001,5.502685904502869E-001,5.288170650601387E-002,2.963541634380817E-002,-8.301500678062439E-001,5.502685904502869E-001,
1.225466666666667E+009,4.196777939796448E-002,4.070338606834412E-002,-7.966418862342835E-001,5.743302106857300E-001,4.196777939796448E-002,4.070338606834412E-002,-7.966418862342835E-001,5.743302106857300E-001,
1.233833333333334E+009,3.903678804636002E-002,5.680199339985848E-002,-7.907814979553223E-001,5.857815742492676E-001,3.903678804636002E-002,5.680199339985848E-002,-7.907814979553223E-001,5.857815742492676E-001,
1.242200000000000E+009,4.890438914299011E-002,7.032153010368347E-002,-7.642045617103577E-001,6.183729767799377E-001,4.890438914299011E-002,7.032153010368347E-002,-7.642045617103577E-001,6.183729767799377E-001,
1.250566666666667E+009,6.316012889146805E-002,7.945032417774200E-002,-7.421793937683106E-001,6.231482028961182E-001,6.316012889146805E-002,7.945032417774200E-002,-7.421793937683106E-001,6.231482028961182E-001,
1.258933333333334E+009,8.380642533302307E-002,7.858048379421234E-002,-7.361030578613281E-001,6.446634531021118E-001,8.380642533302307E-002,7.858048379421234E-002,-7.361030578613281E-001,6.446634531021118E-001,
1.267300000000000E+009,1.034076958894730E-001,6.702888011932373E-002,-7.170748710632324E-001,6.582630872726440E-001,1.034076958894730E-001,6.702888011932373E-002,-7.170748710632324E-001,6.582630872726440E-001,
1.275666666666667E+009,1.118658259510994E-001,4.876229166984558E-002,-7.051167488098145E-001,6.655834913253784E-001,1.118658259510994E-001,4.876229166984558E-002,-7.051167488098145E-001,6.655834913253784E-001,
1.284033333333334E+009,1.133034154772759E-001,2.739888988435268E-002,-6.881558299064636E-001,7.075053453445435E-001,1.133034154772759E-001,2.739888988435268E-002,-6.881558299064636E-001,7.075053453445435E-001,
1.292400000000000E+009,1.025940701365471E-001,9.008734486997128E-003,-6.763876676559448E-001,7.108777165412903E-001,1.025940701365471E-001,9.008734486997128E-003,-6.763876676559448E-001,7.108777165412903E-001,
1.300766666666667E+009,8.320512622594833E-002,7.022772915661335E-004,-6.535993814468384E-001,7.350502610206604E-001,8.320512622594833E-002,7.022772915661335E-004,-6.535993814468384E-001,7.350502610206604E-001,
1.309133333333334E+009,6.357681006193161E-002,2.102307043969631E-003,-6.283938288688660E-001,7.494654059410095E-001,6.357681006193161E-002,2.102307043969631E-003,-6.283938288688660E-001,7.494654059410095E-001,
1.317500000000000E+009,5.004728212952614E-002,1.390409842133522E-002,-6.142629981040955E-001,7.804715633392334E-001,5.004728212952614E-002,1.390409842133522E-002,-6.142629981040955E-001,7.804715633392334E-001,
1.325866666666667E+009,4.687178507447243E-002,3.034368343651295E-002,-5.941408872604370E-001,7.943604588508606E-001,4.687178507447243E-002,3.034368343651295E-002,-5.941408872604370E-001,7.943604588508606E-001,
1.334233333333334E+009,5.649409443140030E-002,4.672683775424957E-002,-5.749026536941528E-001,7.995275855064392E-001,5.649409443140030E-002,4.672683775424957E-002,-5.749026536941528E-001,7.995275855064392E-001,
1.342600000000000E+009,7.307617366313934E-002,5.433528125286102E-002,-5.566602945327759E-001,8.161889314651489E-001,7.307617366313934E-002,5.433528125286102E-002,-5.566602945327759E-001,8.161889314651489E-001,
1.350966666666667E+009,9.378288686275482E-002,5.007561668753624E-002,-5.298457741737366E-001,8.271664381027222E-001,9.378288686275482E-002,5.007561668753624E-002,-5.298457741737366E-001,8.271664381027222E-001,
1.359333333333334E+009,1.086358129978180E-001,3.568335250020027E-002,-5.169301033020020E-001,8.265392184257507E-001,1.086358129978180E-001,3.568335250020027E-002,-5.169301033020020E-001,8.265392184257507E-001,
1.367700000000000E+009,1.139590218663216E-001,1.554658729583025E-002,-4.835364818572998E-001,8.440869450569153E-001,1.139590218663216E-001,1.554658729583025E-002,-4.835364818572998E-001,8.440869450569153E-001,
1.376066666666667E+009,1.097256392240524E-001,-6.806148681789637E-003,-4.681493341922760E-001,8.531668782234192E-001,1.097256392240524E-001,-6.806148681789637E-003,-4.681493341922760E-001,8.531668782234192E-001,
1.384433333333334E+009,9.221444278955460E-002,-2.159355394542217E-002,-4.527816474437714E-001,8.836728930473328E-001,9.221444278955460E-002,-2.159355394542217E-002,-4.527816474437714E-001,8.836728930473328E-001,
1.392800000000000E+009,7.156788557767868E-002,-2.356963232159615E-002,-4.315187633037567E-001,8.919957876205444E-001,7.156788557767868E-002,-2.356963232159615E-002,-4.315187633037567E-001,8.919957876205444E-001,
1.401166666666667E+009,5.165054276585579E-002,-1.589564606547356E-002,-4.043059945106506E-001,8.993253111839294E-001,5.165054276585579E-002,-1.589564606547356E-002,-4.043059945106506E-001,8.993253111839294E-001,
1.409533333333334E+009,3.894897922873497E-002,8.253658306784928E-004,-3.737495839595795E-001,9.134814739227295E-001,3.894897922873497E-002,8.253658306784928E-004,-3.737495839595795E-001,9.134814739227295E-001,
1.417900000000000E+009,4.131034389138222E-002,2.331748418509960E-002,-3.540684878826141E-001,9.087391495704651E-001,4.131034389138222E-002,2.331748418509960E-002,-3.540684878826141E-001,9.087391495704651E-001,
1.426266666666667E+009,5.329000204801559E-002,3.881734237074852E-002,-3.158037066459656E-001,9.341298937797546E-001,5.329000204801559E-002,3.881734237074852E-002,-3.158037066459656E-001,9.341298937797546E-001,
1.434633333333334E+009,7.457070052623749E-002,4.520399495959282E-002,-3.060756027698517E-001,9.273869991302490E-001,7.457070052623749E-002,4.520399495959282E-002,-3.060756027698517E-001,9.273869991302490E-001,
1.443000000000000E+009,9.547545760869980E-002,4.053152352571487E-002,-2.812024950981140E-001,9.340478181838989E-001,9.547545760869980E-002,4.053152352571487E-002,-2.812024950981140E-001,9.340478181838989E-001,
1.451366666666667E+009,1.111774742603302E-001,2.354418858885765E-002,-2.557223737239838E-001,9.334602952003479E-001,1.111774742603302E-001,2.354418858885765E-002,-2.557223737239838E-001,9.334602952003479E-001,
1.459733333333334E+009,1.171464845538139E-001,2.501215785741806E-003,-2.292716056108475E-001,9.591264128684998E-001,1.171464845538139E-001,2.501215785741806E-003,-2.292716056108475E-001,9.591264128684998E-001,
