% Version 1.00
%
%freq[Hz],re:Trc1_S11,im:Trc1_S11,re:Trc2_S21,im:Trc2_S21,re:Trc3_S11,im:Trc3_S11,re:Trc4_S21,im:Trc4_S21,
6.900000000000000E+008,-3.929326310753822E-002,3.306050226092339E-002,-4.934122264385223E-001,-8.566944599151611E-001,-3.929326310753822E-002,3.306050226092339E-002,-4.934122264385223E-001,-8.566944599151611E-001,
6.983666666666666E+008,-3.120378777384758E-002,3.308888152241707E-002,-5.183724761009216E-001,-8.457034230232239E-001,-3.120378777384758E-002,3.308888152241707E-002,-5.183724761009216E-001,-8.457034230232239E-001,
7.067333333333334E+008,-2.501422166824341E-002,2.851080149412155E-002,-5.423939228057861E-001,-8.215562105178833E-001,-2.501422166824341E-002,2.851080149412155E-002,-5.423939228057861E-001,-8.215562105178833E-001,
7.151000000000000E+008,-2.421550638973713E-002,2.051299437880516E-002,-5.768361091613770E-001,-8.199881911277771E-001,-2.421550638973713E-002,2.051299437880516E-002,-5.768361091613770E-001,-8.199881911277771E-001,
7.234666666666666E+008,-2.581124193966389E-002,1.518641971051693E-002,-5.911026000976563E-001,-8.039241433143616E-001,-2.581124193966389E-002,1.518641971051693E-002,-5.911026000976563E-001,-8.039241433143616E-001,
7.318333333333334E+008,-3.295377269387245E-002,1.280139572918415E-002,-6.079699993133545E-001,-7.867211103439331E-001,-3.295377269387245E-002,1.280139572918415E-002,-6.079699993133545E-001,-7.867211103439331E-001,
7.402000000000000E+008,-3.917822986841202E-002,1.453148201107979E-002,-6.175287365913391E-001,-7.626910805702210E-001,-3.917822986841202E-002,1.453148201107979E-002,-6.175287365913391E-001,-7.626910805702210E-001,
7.485666666666666E+008,-4.447170719504356E-002,2.137159928679466E-002,-6.484906077384949E-001,-7.492274641990662E-001,-4.447170719504356E-002,2.137159928679466E-002,-6.484906077384949E-001,-7.492274641990662E-001,
7.569333333333334E+008,-4.883846640586853E-002,3.100964240729809E-002,-6.666131615638733E-001,-7.348439693450928E-001,-4.883846640586853E-002,3.100964240729809E-002,-6.666131615638733E-001,-7.348439693450928E-001,
7.653000000000000E+008,-4.411382228136063E-002,3.938416764140129E-002,-6.771865487098694E-001,-7.189155817031860E-001,-4.411382228136063E-002,3.938416764140129E-002,-6.771865487098694E-001,-7.189155817031860E-001,
7.736666666666666E+008,-3.824106603860855E-002,4.576332122087479E-002,-6.873939037322998E-001,-7.156579494476318E-001,-3.824106603860855E-002,4.576332122087479E-002,-6.873939037322998E-001,-7.156579494476318E-001,
7.820333333333334E+008,-3.020070679485798E-002,4.928090050816536E-002,-7.233283519744873E-001,-6.871496438980103E-001,-3.020070679485798E-002,4.928090050816536E-002,-7.233283519744873E-001,-6.871496438980103E-001,
7.904000000000000E+008,-2.058157511055470E-002,4.785061627626419E-002,-7.332655787467957E-001,-6.694698333740234E-001,-2.058157511055470E-002,4.785061627626419E-002,-7.332655787467957E-001,-6.694698333740234E-001,
7.987666666666666E+008,-1.644138433039188E-002,4.196074977517128E-002,-7.352026700973511E-001,-6.533609628677368E-001,-1.644138433039188E-002,4.196074977517128E-002,-7.352026700973511E-001,-6.533609628677368E-001,
8.071333333333334E+008,-1.377091649919748E-002,3.507353365421295E-002,-7.630652785301209E-001,-6.211884617805481E-001,-1.377091649919748E-002,3.507353365421295E-002,-7.630652785301209E-001,-6.211884617805481E-001,
8.155000000000000E+008,-1.641589030623436E-002,2.773289196193218E-002,-7.904145121574402E-001,-6.100096702575684E-001,-1.641589030623436E-002,2.773289196193218E-002,-7.904145121574402E-001,-6.100096702575684E-001,
8.238666666666666E+008,-2.306185290217400E-002,2.519910037517548E-002,-7.969633936882019E-001,-5.889219045639038E-001,-2.306185290217400E-002,2.519910037517548E-002,-7.969633936882019E-001,-5.889219045639038E-001,
8.322333333333334E+008,-2.809344790875912E-002,2.652246877551079E-002,-8.061719536781311E-001,-5.678144097328186E-001,-2.809344790875912E-002,2.652246877551079E-002,-8.061719536781311E-001,-5.678144097328186E-001,
8.406000000000000E+008,-3.280270099639893E-002,2.961553819477558E-002,-8.180476427078247E-001,-5.450671315193176E-001,-3.280270099639893E-002,2.961553819477558E-002,-8.180476427078247E-001,-5.450671315193176E-001,
8.489666666666668E+008,-3.474798426032066E-002,4.061875492334366E-002,-8.312913179397583E-001,-5.176041722297669E-001,-3.474798426032066E-002,4.061875492334366E-002,-8.312913179397583E-001,-5.176041722297669E-001,
8.573333333333334E+008,-3.326474130153656E-002,4.813288152217865E-002,-8.340060710906982E-001,-4.881510436534882E-001,-3.326474130153656E-002,4.813288152217865E-002,-8.340060710906982E-001,-4.881510436534882E-001,
8.657000000000000E+008,-2.874543704092503E-002,5.584866926074028E-002,-8.608321547508240E-001,-4.913623034954071E-001,-2.874543704092503E-002,5.584866926074028E-002,-8.608321547508240E-001,-4.913623034954071E-001,
8.740666666666668E+008,-2.047457173466682E-002,6.074542179703713E-002,-8.677327632904053E-001,-4.678229391574860E-001,-2.047457173466682E-002,6.074542179703713E-002,-8.677327632904053E-001,-4.678229391574860E-001,
8.824333333333334E+008,-1.305654831230640E-002,6.211747229099274E-002,-8.848907947540283E-001,-4.429165720939636E-001,-1.305654831230640E-002,6.211747229099274E-002,-8.848907947540283E-001,-4.429165720939636E-001,
8.908000000000000E+008,-5.312607157975435E-003,5.819453671574593E-002,-9.000989198684692E-001,-4.257888197898865E-001,-5.312607157975435E-003,5.819453671574593E-002,-9.000989198684692E-001,-4.257888197898865E-001,
8.991666666666668E+008,-3.285336060798727E-005,5.191145837306976E-002,-9.019182920455933E-001,-3.993667364120483E-001,-3.285336060798727E-005,5.191145837306976E-002,-9.019182920455933E-001,-3.993667364120483E-001,
9.075333333333334E+008,2.933265641331673E-004,4.354173317551613E-002,-9.137591719627380E-001,-3.739028871059418E-001,2.933265641331673E-004,4.354173317551613E-002,-9.137591719627380E-001,-3.739028871059418E-001,
9.159000000000000E+008,-2.105469582602382E-003,3.757688403129578E-002,-9.356228113174439E-001,-3.477638065814972E-001,-2.105469582602382E-003,3.757688403129578E-002,-9.356228113174439E-001,-3.477638065814972E-001,
9.242666666666668E+008,-8.439827710390091E-003,3.712531924247742E-002,-9.277747273445129E-001,-3.259664475917816E-001,-8.439827710390091E-003,3.712531924247742E-002,-9.277747273445129E-001,-3.259664475917816E-001,
9.326333333333334E+008,-1.358544826507568E-002,3.889111801981926E-002,-9.435445666313171E-001,-3.138817548751831E-001,-1.358544826507568E-002,3.889111801981926E-002,-9.435445666313171E-001,-3.138817548751831E-001,
9.410000000000000E+008,-1.772337406873703E-002,4.310115054249764E-002,-9.561868309974670E-001,-2.768677175045013E-001,-1.772337406873703E-002,4.310115054249764E-002,-9.561868309974670E-001,-2.768677175045013E-001,
9.493666666666668E+008,-1.936545968055725E-002,5.228771269321442E-002,-9.597344398498535E-001,-2.476047277450562E-001,-1.936545968055725E-002,5.228771269321442E-002,-9.597344398498535E-001,-2.476047277450562E-001,
9.577333333333334E+008,-1.670517027378082E-002,6.193891912698746E-002,-9.665125608444214E-001,-2.329544425010681E-001,-1.670517027378082E-002,6.193891912698746E-002,-9.665125608444214E-001,-2.329544425010681E-001,
9.661000000000000E+008,-8.866190910339356E-003,6.898047775030136E-002,-9.676048755645752E-001,-1.928813755512238E-001,-8.866190910339356E-003,6.898047775030136E-002,-9.676048755645752E-001,-1.928813755512238E-001,
9.744666666666668E+008,1.336033456027508E-003,6.939302384853363E-002,-9.674490094184876E-001,-1.819950193166733E-001,1.336033456027508E-003,6.939302384853363E-002,-9.674490094184876E-001,-1.819950193166733E-001,
9.828333333333334E+008,9.847486391663551E-003,7.053872942924500E-002,-9.815854430198669E-001,-1.619543433189392E-001,9.847486391663551E-003,7.053872942924500E-002,-9.815854430198669E-001,-1.619543433189392E-001,
9.912000000000000E+008,1.992895640432835E-002,6.379319727420807E-002,-9.794539213180542E-001,-1.398025304079056E-001,1.992895640432835E-002,6.379319727420807E-002,-9.794539213180542E-001,-1.398025304079056E-001,
9.995666666666668E+008,2.338207513093948E-002,5.575496703386307E-002,-9.924016594886780E-001,-1.045395657420158E-001,2.338207513093948E-002,5.575496703386307E-002,-9.924016594886780E-001,-1.045395657420158E-001,
1.007933333333333E+009,2.680980414152145E-002,4.601361230015755E-002,-1.007183670997620E+000,-8.832272887229919E-002,2.680980414152145E-002,4.601361230015755E-002,-1.007183670997620E+000,-8.832272887229919E-002,
1.016300000000000E+009,2.091357111930847E-002,3.931602835655212E-002,-9.957010746002197E-001,-6.164650246500969E-002,2.091357111930847E-002,3.931602835655212E-002,-9.957010746002197E-001,-6.164650246500969E-002,
1.024666666666667E+009,1.338428538292646E-002,3.474942967295647E-002,-9.916300177574158E-001,-3.535915911197662E-002,1.338428538292646E-002,3.474942967295647E-002,-9.916300177574158E-001,-3.535915911197662E-002,
1.033033333333333E+009,8.509830571711063E-003,3.868667408823967E-002,-9.985197782516480E-001,-1.082489173859358E-002,8.509830571711063E-003,3.868667408823967E-002,-9.985197782516480E-001,-1.082489173859358E-002,
1.041400000000000E+009,1.735651399940252E-003,4.356387257575989E-002,-9.998649954795837E-001,1.248514745384455E-002,1.735651399940252E-003,4.356387257575989E-002,-9.998649954795837E-001,1.248514745384455E-002,
1.049766666666667E+009,4.335738252848387E-003,5.332116037607193E-002,-9.864514470100403E-001,4.938126727938652E-002,4.335738252848387E-003,5.332116037607193E-002,-9.864514470100403E-001,4.938126727938652E-002,
1.058133333333333E+009,8.098581805825234E-003,6.263533979654312E-002,-9.868451952934265E-001,7.007290422916412E-002,8.098581805825234E-003,6.263533979654312E-002,-9.868451952934265E-001,7.007290422916412E-002,
1.066500000000000E+009,1.861476711928845E-002,6.735498458147049E-002,-1.002180337905884E+000,1.037632897496223E-001,1.861476711928845E-002,6.735498458147049E-002,-1.002180337905884E+000,1.037632897496223E-001,
1.074866666666667E+009,3.131608292460442E-002,6.684288382530212E-002,-9.962261319160461E-001,1.239716932177544E-001,3.131608292460442E-002,6.684288382530212E-002,-9.962261319160461E-001,1.239716932177544E-001,
1.083233333333334E+009,3.958846256136894E-002,5.897982791066170E-002,-9.807363152503967E-001,1.468048840761185E-001,3.958846256136894E-002,5.897982791066170E-002,-9.807363152503967E-001,1.468048840761185E-001,
1.091600000000000E+009,4.588854685425758E-002,4.836544021964073E-002,-9.637874364852905E-001,1.657437831163406E-001,4.588854685425758E-002,4.836544021964073E-002,-9.637874364852905E-001,1.657437831163406E-001,
1.099966666666667E+009,4.453204199671745E-002,3.455432876944542E-002,-9.591434597969055E-001,2.050830572843552E-001,4.453204199671745E-002,3.455432876944542E-002,-9.591434597969055E-001,2.050830572843552E-001,
1.108333333333334E+009,3.634009882807732E-002,2.571218274533749E-002,-9.583073854446411E-001,2.132178246974945E-001,3.634009882807732E-002,2.571218274533749E-002,-9.583073854446411E-001,2.132178246974945E-001,
1.116700000000000E+009,2.556670829653740E-002,2.127467095851898E-002,-9.529759883880615E-001,2.455152869224548E-001,2.556670829653740E-002,2.127467095851898E-002,-9.529759883880615E-001,2.455152869224548E-001,
1.125066666666667E+009,1.431149989366531E-002,2.503871358931065E-002,-9.528796076774597E-001,2.637621760368347E-001,1.431149989366531E-002,2.503871358931065E-002,-9.528796076774597E-001,2.637621760368347E-001,
1.133433333333334E+009,6.218579132109880E-003,3.418502211570740E-002,-9.512090086936951E-001,3.080845475196838E-001,6.218579132109880E-003,3.418502211570740E-002,-9.512090086936951E-001,3.080845475196838E-001,
1.141800000000000E+009,4.565624520182610E-003,4.779140651226044E-002,-9.276345372200012E-001,3.241834044456482E-001,4.565624520182610E-003,4.779140651226044E-002,-9.276345372200012E-001,3.241834044456482E-001,
1.150166666666667E+009,1.291576493531466E-002,6.252603977918625E-002,-9.198599457740784E-001,3.238577842712402E-001,1.291576493531466E-002,6.252603977918625E-002,-9.198599457740784E-001,3.238577842712402E-001,
1.158533333333334E+009,2.840530313551426E-002,7.035739719867706E-002,-9.133977293968201E-001,3.646703958511353E-001,2.840530313551426E-002,7.035739719867706E-002,-9.133977293968201E-001,3.646703958511353E-001,
1.166900000000000E+009,4.734144732356072E-002,7.121229171752930E-002,-8.971850275993347E-001,3.850558698177338E-001,4.734144732356072E-002,7.121229171752930E-002,-8.971850275993347E-001,3.850558698177338E-001,
1.175266666666667E+009,6.285905092954636E-002,6.136087700724602E-002,-8.919855952262878E-001,4.140102267265320E-001,6.285905092954636E-002,6.136087700724602E-002,-8.919855952262878E-001,4.140102267265320E-001,
1.183633333333334E+009,7.471710443496704E-002,4.705898091197014E-002,-8.893739581108093E-001,4.264880716800690E-001,7.471710443496704E-002,4.705898091197014E-002,-8.893739581108093E-001,4.264880716800690E-001,
1.192000000000000E+009,7.454477250576019E-002,2.830127626657486E-002,-8.775194883346558E-001,4.492272138595581E-001,7.454477250576019E-002,2.830127626657486E-002,-8.775194883346558E-001,4.492272138595581E-001,
1.200366666666667E+009,6.498153507709503E-002,1.143343932926655E-002,-8.654610514640808E-001,4.712984859943390E-001,6.498153507709503E-002,1.143343932926655E-002,-8.654610514640808E-001,4.712984859943390E-001,
1.208733333333334E+009,4.970418289303780E-002,1.448662602342665E-003,-8.596797585487366E-001,5.132330060005188E-001,4.970418289303780E-002,1.448662602342665E-003,-8.596797585487366E-001,5.132330060005188E-001,
1.217100000000000E+009,3.318459168076515E-002,1.824507140554488E-003,-8.569234013557434E-001,5.225602984428406E-001,3.318459168076515E-002,1.824507140554488E-003,-8.569234013557434E-001,5.225602984428406E-001,
1.225466666666667E+009,1.999618113040924E-002,1.176636479794979E-002,-8.233399987220764E-001,5.470929145812988E-001,1.999618113040924E-002,1.176636479794979E-002,-8.233399987220764E-001,5.470929145812988E-001,
1.233833333333334E+009,1.466510817408562E-002,2.810610085725784E-002,-8.183844089508057E-001,5.593639612197876E-001,1.466510817408562E-002,2.810610085725784E-002,-8.183844089508057E-001,5.593639612197876E-001,
1.242200000000000E+009,2.260592207312584E-002,4.273576289415360E-002,-7.940338850021362E-001,5.939315557479858E-001,2.260592207312584E-002,4.273576289415360E-002,-7.940338850021362E-001,5.939315557479858E-001,
1.250566666666667E+009,3.534769266843796E-002,5.379964038729668E-002,-7.726923227310181E-001,6.000050902366638E-001,3.534769266843796E-002,5.379964038729668E-002,-7.726923227310181E-001,6.000050902366638E-001,
1.258933333333334E+009,5.599614232778549E-002,5.492867901921272E-002,-7.673501372337341E-001,6.228000521659851E-001,5.599614232778549E-002,5.492867901921272E-002,-7.673501372337341E-001,6.228000521659851E-001,
1.267300000000000E+009,7.592430710792542E-002,4.545463994145393E-002,-7.477623820304871E-001,6.369398832321167E-001,7.592430710792542E-002,4.545463994145393E-002,-7.477623820304871E-001,6.369398832321167E-001,
1.275666666666667E+009,8.541922271251679E-002,2.803109399974346E-002,-7.362586259841919E-001,6.449654698371887E-001,8.541922271251679E-002,2.803109399974346E-002,-7.362586259841919E-001,6.449654698371887E-001,
1.284033333333334E+009,8.772273361682892E-002,7.145487703382969E-003,-7.204138636589050E-001,6.876206994056702E-001,8.772273361682892E-002,7.145487703382969E-003,-7.204138636589050E-001,6.876206994056702E-001,
1.292400000000000E+009,7.703345268964768E-002,-1.196865644305944E-002,-7.065262198448181E-001,6.914896368980408E-001,7.703345268964768E-002,-1.196865644305944E-002,-7.065262198448181E-001,6.914896368980408E-001,
1.300766666666667E+009,5.717696622014046E-002,-2.100023254752159E-002,-6.853645443916321E-001,7.152688503265381E-001,5.717696622014046E-002,-2.100023254752159E-002,-6.853645443916321E-001,7.152688503265381E-001,
1.309133333333334E+009,3.585987165570259E-002,-2.034632302820683E-002,-6.614229679107666E-001,7.282314896583557E-001,3.585987165570259E-002,-2.034632302820683E-002,-6.614229679107666E-001,7.282314896583557E-001,
1.317500000000000E+009,2.039678394794464E-002,-9.385195560753346E-003,-6.515296101570129E-001,7.568008899688721E-001,2.039678394794464E-002,-9.385195560753346E-003,-6.515296101570129E-001,7.568008899688721E-001,
1.325866666666667E+009,1.479855179786682E-002,7.228803820908070E-003,-6.307578086853027E-001,7.761850953102112E-001,1.479855179786682E-002,7.228803820908070E-003,-6.307578086853027E-001,7.761850953102112E-001,
1.334233333333334E+009,2.210554853081703E-002,2.526282891631126E-002,-6.124330759048462E-001,7.810197472572327E-001,2.210554853081703E-002,2.526282891631126E-002,-6.124330759048462E-001,7.810197472572327E-001,
1.342600000000000E+009,3.732127696275711E-002,3.517693281173706E-002,-5.946726799011231E-001,7.992917895317078E-001,3.732127696275711E-002,3.517693281173706E-002,-5.946726799011231E-001,7.992917895317078E-001,
1.350966666666667E+009,5.814085528254509E-002,3.304376825690270E-002,-5.715138912200928E-001,8.122166991233826E-001,5.814085528254509E-002,3.304376825690270E-002,-5.715138912200928E-001,8.122166991233826E-001,
1.359333333333334E+009,7.349605113267899E-002,2.043082937598229E-002,-5.550637245178223E-001,8.130321502685547E-001,7.349605113267899E-002,2.043082937598229E-002,-5.550637245178223E-001,8.130321502685547E-001,
1.367700000000000E+009,8.049626648426056E-002,1.163883483968675E-003,-5.212057232856751E-001,8.319072723388672E-001,8.049626648426056E-002,1.163883483968675E-003,-5.212057232856751E-001,8.319072723388672E-001,
1.376066666666667E+009,7.750774919986725E-002,-2.068924345076084E-002,-5.061327815055847E-001,8.416500091552734E-001,7.750774919986725E-002,-2.068924345076084E-002,-5.061327815055847E-001,8.416500091552734E-001,
1.384433333333334E+009,6.047126650810242E-002,-3.653903305530548E-002,-4.914461672306061E-001,8.724095225334168E-001,6.047126650810242E-002,-3.653903305530548E-002,-4.914461672306061E-001,8.724095225334168E-001,
1.392800000000000E+009,3.897022828459740E-002,-3.942663967609406E-002,-4.700976312160492E-001,8.797720670700073E-001,3.897022828459740E-002,-3.942663967609406E-002,-4.700976312160492E-001,8.797720670700073E-001,
1.401166666666667E+009,1.717929542064667E-002,-3.287579491734505E-002,-4.443014562129974E-001,8.875315785408020E-001,1.717929542064667E-002,-3.287579491734505E-002,-4.443014562129974E-001,8.875315785408020E-001,
1.409533333333334E+009,2.171389060094953E-003,-1.542314141988754E-002,-4.162426292896271E-001,9.022505283355713E-001,2.171389060094953E-003,-1.542314141988754E-002,-4.162426292896271E-001,9.022505283355713E-001,
1.417900000000000E+009,1.066000782884657E-003,7.870420813560486E-003,-3.957358598709106E-001,8.983396887779236E-001,1.066000782884657E-003,7.870420813560486E-003,-3.957358598709106E-001,8.983396887779236E-001,
1.426266666666667E+009,1.047904789447784E-002,2.511114254593849E-002,-3.602103292942047E-001,9.247469902038574E-001,1.047904789447784E-002,2.511114254593849E-002,-3.602103292942047E-001,9.247469902038574E-001,
1.434633333333334E+009,3.073788806796074E-002,3.463574126362801E-002,-3.510241806507111E-001,9.220144152641296E-001,3.073788806796074E-002,3.463574126362801E-002,-3.510241806507111E-001,9.220144152641296E-001,
1.443000000000000E+009,5.139342322945595E-002,3.252039849758148E-002,-3.253872096538544E-001,9.304431080818176E-001,5.139342322945595E-002,3.252039849758148E-002,-3.253872096538544E-001,9.304431080818176E-001,
1.451366666666667E+009,6.842263042926788E-002,1.775182038545609E-002,-2.989708781242371E-001,9.315444827079773E-001,6.842263042926788E-002,1.775182038545609E-002,-2.989708781242371E-001,9.315444827079773E-001,
1.459733333333334E+009,7.641806453466415E-002,-1.992251491174102E-003,-2.727369666099548E-001,9.582431912422180E-001,7.641806453466415E-002,-1.992251491174102E-003,-2.727369666099548E-001,9.582431912422180E-001,
