% Version 1.00
%
%freq[Hz],re:Trc1_S11,im:Trc1_S11,re:Trc2_S21,im:Trc2_S21,re:Trc3_S11,im:Trc3_S11,re:Trc4_S21,im:Trc4_S21,
6.900000000000000E+008,-4.226207733154297E-002,3.187078982591629E-002,-4.989639520645142E-001,-8.441424369812012E-001,-4.226207733154297E-002,3.187078982591629E-002,-4.989639520645142E-001,-8.441424369812012E-001,
6.983666666666666E+008,-3.458560630679131E-002,3.246178478002548E-002,-5.240174531936646E-001,-8.333472609519959E-001,-3.458560630679131E-002,3.246178478002548E-002,-5.240174531936646E-001,-8.333472609519959E-001,
7.067333333333334E+008,-2.879859879612923E-002,2.803510054945946E-002,-5.468296408653259E-001,-8.079613447189331E-001,-2.879859879612923E-002,2.803510054945946E-002,-5.468296408653259E-001,-8.079613447189331E-001,
7.151000000000000E+008,-2.849626541137695E-002,2.045655809342861E-002,-5.818129181861877E-001,-8.060854077339172E-001,-2.849626541137695E-002,2.045655809342861E-002,-5.818129181861877E-001,-8.060854077339172E-001,
7.234666666666666E+008,-3.026596084237099E-002,1.531006116420031E-002,-5.949780344963074E-001,-7.905567288398743E-001,-3.026596084237099E-002,1.531006116420031E-002,-5.949780344963074E-001,-7.905567288398743E-001,
7.318333333333334E+008,-3.748223930597305E-002,1.299485284835100E-002,-6.125600337982178E-001,-7.738091945648193E-001,-3.748223930597305E-002,1.299485284835100E-002,-6.125600337982178E-001,-7.738091945648193E-001,
7.402000000000000E+008,-4.351873695850372E-002,1.477854885160923E-002,-6.229218840599060E-001,-7.485461831092835E-001,-4.351873695850372E-002,1.477854885160923E-002,-6.229218840599060E-001,-7.485461831092835E-001,
7.485666666666666E+008,-4.869880527257919E-002,2.153866365551949E-002,-6.526241898536682E-001,-7.355786561965942E-001,-4.869880527257919E-002,2.153866365551949E-002,-6.526241898536682E-001,-7.355786561965942E-001,
7.569333333333334E+008,-5.251474678516388E-002,3.106516227126122E-002,-6.706671714782715E-001,-7.220732569694519E-001,-5.251474678516388E-002,3.106516227126122E-002,-6.706671714782715E-001,-7.220732569694519E-001,
7.653000000000000E+008,-4.728382080793381E-002,3.980552405118942E-002,-6.782158017158508E-001,-7.031919956207275E-001,-4.728382080793381E-002,3.980552405118942E-002,-6.782158017158508E-001,-7.031919956207275E-001,
7.736666666666666E+008,-4.122920706868172E-002,4.628646746277809E-002,-6.909152865409851E-001,-6.993212699890137E-001,-4.122920706868172E-002,4.628646746277809E-002,-6.909152865409851E-001,-6.993212699890137E-001,
7.820333333333334E+008,-3.290463238954544E-002,5.022178590297699E-002,-7.242688536643982E-001,-6.713859438896179E-001,-3.290463238954544E-002,5.022178590297699E-002,-7.242688536643982E-001,-6.713859438896179E-001,
7.904000000000000E+008,-2.335898578166962E-002,4.908579215407372E-002,-7.329799532890320E-001,-6.529242396354675E-001,-2.335898578166962E-002,4.908579215407372E-002,-7.329799532890320E-001,-6.529242396354675E-001,
7.987666666666666E+008,-1.943811401724815E-002,4.378866776823998E-002,-7.388373613357544E-001,-6.368922591209412E-001,-1.943811401724815E-002,4.378866776823998E-002,-7.388373613357544E-001,-6.368922591209412E-001,
8.071333333333334E+008,-1.755743473768234E-002,3.733857348561287E-002,-7.647675275802612E-001,-6.055264472961426E-001,-1.755743473768234E-002,3.733857348561287E-002,-7.647675275802612E-001,-6.055264472961426E-001,
8.155000000000000E+008,-2.063261531293392E-002,3.039879538118839E-002,-7.913561463356018E-001,-5.944690108299255E-001,-2.063261531293392E-002,3.039879538118839E-002,-7.913561463356018E-001,-5.944690108299255E-001,
8.238666666666666E+008,-2.720630913972855E-002,2.839104272425175E-002,-7.973051667213440E-001,-5.710169672966003E-001,-2.720630913972855E-002,2.839104272425175E-002,-7.973051667213440E-001,-5.710169672966003E-001,
8.322333333333334E+008,-3.268297016620636E-002,2.971901185810566E-002,-8.068141341209412E-001,-5.529970526695252E-001,-3.268297016620636E-002,2.971901185810566E-002,-8.068141341209412E-001,-5.529970526695252E-001,
8.406000000000000E+008,-3.717387095093727E-002,3.286736458539963E-002,-8.186017870903015E-001,-5.308003425598145E-001,-3.717387095093727E-002,3.286736458539963E-002,-8.186017870903015E-001,-5.308003425598145E-001,
8.489666666666668E+008,-3.860060498118401E-002,4.372180253267288E-002,-8.301521539688110E-001,-5.016334652900696E-001,-3.860060498118401E-002,4.372180253267288E-002,-8.301521539688110E-001,-5.016334652900696E-001,
8.573333333333334E+008,-3.652017563581467E-002,5.138373747467995E-002,-8.321855068206787E-001,-4.715270102024078E-001,-3.652017563581467E-002,5.138373747467995E-002,-8.321855068206787E-001,-4.715270102024078E-001,
8.657000000000000E+008,-3.138694539666176E-002,5.890947952866554E-002,-8.595878481864929E-001,-4.755257070064545E-001,-3.138694539666176E-002,5.890947952866554E-002,-8.595878481864929E-001,-4.755257070064545E-001,
8.740666666666668E+008,-2.258145622909069E-002,6.377930194139481E-002,-8.654141426086426E-001,-4.509355127811432E-001,-2.258145622909069E-002,6.377930194139481E-002,-8.654141426086426E-001,-4.509355127811432E-001,
8.824333333333334E+008,-1.473462115973234E-002,6.520610302686691E-002,-8.838356137275696E-001,-4.268553853034973E-001,-1.473462115973234E-002,6.520610302686691E-002,-8.838356137275696E-001,-4.268553853034973E-001,
8.908000000000000E+008,-7.082779891788960E-003,6.166685372591019E-002,-8.973708152770996E-001,-4.092442691326141E-001,-7.082779891788960E-003,6.166685372591019E-002,-8.973708152770996E-001,-4.092442691326141E-001,
8.991666666666668E+008,-2.106563188135624E-003,5.580288544297218E-002,-8.971768021583557E-001,-3.823098540306091E-001,-2.106563188135624E-003,5.580288544297218E-002,-8.971768021583557E-001,-3.823098540306091E-001,
9.075333333333334E+008,-2.071490045636892E-003,4.825977608561516E-002,-9.113561511039734E-001,-3.573621511459351E-001,-2.071490045636892E-003,4.825977608561516E-002,-9.113561511039734E-001,-3.573621511459351E-001,
9.159000000000000E+008,-4.845020361244679E-003,4.259240999817848E-002,-9.322557449340820E-001,-3.325070440769196E-001,-4.845020361244679E-003,4.259240999817848E-002,-9.322557449340820E-001,-3.325070440769196E-001,
9.242666666666668E+008,-1.149390917271376E-002,4.268867895007134E-002,-9.238138198852539E-001,-3.106206953525543E-001,-1.149390917271376E-002,4.268867895007134E-002,-9.238138198852539E-001,-3.106206953525543E-001,
9.326333333333334E+008,-1.626282185316086E-002,4.477668181061745E-002,-9.393671154975891E-001,-2.961615324020386E-001,-1.626282185316086E-002,4.477668181061745E-002,-9.393671154975891E-001,-2.961615324020386E-001,
9.410000000000000E+008,-2.009393461048603E-002,4.887291416525841E-002,-9.495456814765930E-001,-2.609053254127502E-001,-2.009393461048603E-002,4.887291416525841E-002,-9.495456814765930E-001,-2.609053254127502E-001,
9.493666666666668E+008,-2.138689719140530E-002,5.783656239509583E-002,-9.541013836860657E-001,-2.305745929479599E-001,-2.138689719140530E-002,5.783656239509583E-002,-9.541013836860657E-001,-2.305745929479599E-001,
9.577333333333334E+008,-1.770883239805698E-002,6.726475059986115E-002,-9.598559141159058E-001,-2.168623507022858E-001,-1.770883239805698E-002,6.726475059986115E-002,-9.598559141159058E-001,-2.168623507022858E-001,
9.661000000000000E+008,-8.998524397611618E-003,7.364361733198166E-002,-9.607907533645630E-001,-1.755997538566589E-001,-8.998524397611618E-003,7.364361733198166E-002,-9.607907533645630E-001,-1.755997538566589E-001,
9.744666666666668E+008,1.367830205708742E-003,7.383069396018982E-002,-9.583892226219177E-001,-1.654161661863327E-001,1.367830205708742E-003,7.383069396018982E-002,-9.583892226219177E-001,-1.654161661863327E-001,
9.828333333333334E+008,1.010438613593578E-002,7.473532855510712E-002,-9.739981889724731E-001,-1.458213180303574E-001,1.010438613593578E-002,7.473532855510712E-002,-9.739981889724731E-001,-1.458213180303574E-001,
9.912000000000000E+008,2.009161747992039E-002,6.833370029926300E-002,-9.712892770767212E-001,-1.239228919148445E-001,2.009161747992039E-002,6.833370029926300E-002,-9.712892770767212E-001,-1.239228919148445E-001,
9.995666666666668E+008,2.336534485220909E-002,6.060827523469925E-002,-9.835315346717835E-001,-8.732395619153976E-002,2.336534485220909E-002,6.060827523469925E-002,-9.835315346717835E-001,-8.732395619153976E-002,
1.007933333333333E+009,2.650584466755390E-002,5.123595520853996E-002,-9.973039031028748E-001,-6.981510668992996E-002,2.650584466755390E-002,5.123595520853996E-002,-9.973039031028748E-001,-6.981510668992996E-002,
1.016300000000000E+009,2.020955272018910E-002,4.531269520521164E-002,-9.835178256034851E-001,-4.397443681955338E-002,2.020955272018910E-002,4.531269520521164E-002,-9.835178256034851E-001,-4.397443681955338E-002,
1.024666666666667E+009,1.264936663210392E-002,4.153709858655930E-002,-9.795559048652649E-001,-1.799959875643253E-002,1.264936663210392E-002,4.153709858655930E-002,-9.795559048652649E-001,-1.799959875643253E-002,
1.033033333333333E+009,7.852492853999138E-003,4.610047489404678E-002,-9.858515262603760E-001,8.264689706265926E-003,7.852492853999138E-003,4.610047489404678E-002,-9.858515262603760E-001,8.264689706265926E-003,
1.041400000000000E+009,1.503346255049110E-003,5.092971399426460E-002,-9.854668378829956E-001,2.910574898123741E-002,1.503346255049110E-003,5.092971399426460E-002,-9.854668378829956E-001,2.910574898123741E-002,
1.049766666666667E+009,4.773663822561503E-003,6.021385267376900E-002,-9.708788990974426E-001,6.436890363693237E-002,4.773663822561503E-003,6.021385267376900E-002,-9.708788990974426E-001,6.436890363693237E-002,
1.058133333333333E+009,9.075310081243515E-003,6.903123855590820E-002,-9.726819396018982E-001,8.668196946382523E-002,9.075310081243515E-003,6.903123855590820E-002,-9.726819396018982E-001,8.668196946382523E-002,
1.066500000000000E+009,2.016925439238548E-002,7.310210913419724E-002,-9.871037602424622E-001,1.202200949192047E-001,2.016925439238548E-002,7.310210913419724E-002,-9.871037602424622E-001,1.202200949192047E-001,
1.074866666666667E+009,3.331094235181809E-002,7.180641591548920E-002,-9.809495806694031E-001,1.405421495437622E-001,3.331094235181809E-002,7.180641591548920E-002,-9.809495806694031E-001,1.405421495437622E-001,
1.083233333333334E+009,4.152150824666023E-002,6.385180354118347E-002,-9.643781185150147E-001,1.609465181827545E-001,4.152150824666023E-002,6.385180354118347E-002,-9.643781185150147E-001,1.609465181827545E-001,
1.091600000000000E+009,4.759613052010536E-002,5.350823327898979E-002,-9.471519589424133E-001,1.804205924272537E-001,4.759613052010536E-002,5.350823327898979E-002,-9.471519589424133E-001,1.804205924272537E-001,
1.099966666666667E+009,4.641756787896156E-002,4.035508260130882E-002,-9.424539208412170E-001,2.182440459728241E-001,4.641756787896156E-002,4.035508260130882E-002,-9.424539208412170E-001,2.182440459728241E-001,
1.108333333333334E+009,3.828443214297295E-002,3.256496787071228E-002,-9.421505331993103E-001,2.267257422208786E-001,3.828443214297295E-002,3.256496787071228E-002,-9.421505331993103E-001,2.267257422208786E-001,
1.116700000000000E+009,2.800496481359005E-002,2.932334318757057E-002,-9.349897503852844E-001,2.603053748607636E-001,2.800496481359005E-002,2.932334318757057E-002,-9.349897503852844E-001,2.603053748607636E-001,
1.125066666666667E+009,1.719007454812527E-002,3.380988538265228E-002,-9.356931447982788E-001,2.765994668006897E-001,1.719007454812527E-002,3.380988538265228E-002,-9.356931447982788E-001,2.765994668006897E-001,
1.133433333333334E+009,9.776470251381397E-003,4.327827319502831E-002,-9.326439499855042E-001,3.211568295955658E-001,9.776470251381397E-003,4.327827319502831E-002,-9.326439499855042E-001,3.211568295955658E-001,
1.141800000000000E+009,8.773839101195335E-003,5.622568354010582E-002,-9.096976518630981E-001,3.351583182811737E-001,8.773839101195335E-003,5.622568354010582E-002,-9.096976518630981E-001,3.351583182811737E-001,
1.150166666666667E+009,1.784297265112400E-002,7.000035792589188E-002,-9.008529186248779E-001,3.360481262207031E-001,1.784297265112400E-002,7.000035792589188E-002,-9.008529186248779E-001,3.360481262207031E-001,
1.158533333333334E+009,3.357477486133575E-002,7.660704851150513E-002,-8.931541442871094E-001,3.757016062736511E-001,3.357477486133575E-002,7.660704851150513E-002,-8.931541442871094E-001,3.757016062736511E-001,
1.166900000000000E+009,5.222954601049423E-002,7.635210454463959E-002,-8.767151236534119E-001,3.955082595348358E-001,5.222954601049423E-002,7.635210454463959E-002,-8.767151236534119E-001,3.955082595348358E-001,
1.175266666666667E+009,6.749785691499710E-002,6.573100388050079E-002,-8.711460828781128E-001,4.244956672191620E-001,6.749785691499710E-002,6.573100388050079E-002,-8.711460828781128E-001,4.244956672191620E-001,
1.183633333333334E+009,7.884623110294342E-002,5.138136819005013E-002,-8.694964051246643E-001,4.362179040908814E-001,7.884623110294342E-002,5.138136819005013E-002,-8.694964051246643E-001,4.362179040908814E-001,
1.192000000000000E+009,7.846215367317200E-002,3.317891061306000E-002,-8.572753071784973E-001,4.586862027645111E-001,7.846215367317200E-002,3.317891061306000E-002,-8.572753071784973E-001,4.586862027645111E-001,
1.200366666666667E+009,6.882041692733765E-002,1.721104420721531E-002,-8.445625901222229E-001,4.799042940139771E-001,6.882041692733765E-002,1.721104420721531E-002,-8.445625901222229E-001,4.799042940139771E-001,
1.208733333333334E+009,5.401908606290817E-002,8.745071478188038E-003,-8.376357555389404E-001,5.218368768692017E-001,5.401908606290817E-002,8.745071478188038E-003,-8.376357555389404E-001,5.218368768692017E-001,
1.217100000000000E+009,3.838683292269707E-002,1.012521237134934E-002,-8.333652615547180E-001,5.315069556236267E-001,3.838683292269707E-002,1.012521237134934E-002,-8.333652615547180E-001,5.315069556236267E-001,
1.225466666666667E+009,2.643202058970928E-002,2.078553289175034E-002,-8.007550239562988E-001,5.559997558593750E-001,2.643202058970928E-002,2.078553289175034E-002,-8.007550239562988E-001,5.559997558593750E-001,
1.233833333333334E+009,2.238758839666843E-002,3.695182874798775E-002,-7.957590818405151E-001,5.672984123229981E-001,2.238758839666843E-002,3.695182874798775E-002,-7.957590818405151E-001,5.672984123229981E-001,
1.242200000000000E+009,3.094914928078651E-002,5.078260228037834E-002,-7.699828147888184E-001,6.002553701400757E-001,3.094914928078651E-002,5.078260228037834E-002,-7.699828147888184E-001,6.002553701400757E-001,
1.250566666666667E+009,4.401906207203865E-002,6.032084301114082E-002,-7.484470009803772E-001,6.053259372711182E-001,4.401906207203865E-002,6.032084301114082E-002,-7.484470009803772E-001,6.053259372711182E-001,
1.258933333333334E+009,6.422829627990723E-002,6.012951955199242E-002,-7.431995868682861E-001,6.269046664237976E-001,6.422829627990723E-002,6.012951955199242E-002,-7.431995868682861E-001,6.269046664237976E-001,
1.267300000000000E+009,8.322154730558395E-002,4.928265511989594E-002,-7.245960831642151E-001,6.406555771827698E-001,8.322154730558395E-002,4.928265511989594E-002,-7.245960831642151E-001,6.406555771827698E-001,
1.275666666666667E+009,9.186048805713654E-002,3.155866637825966E-002,-7.124454975128174E-001,6.483568549156189E-001,9.186048805713654E-002,3.155866637825966E-002,-7.124454975128174E-001,6.483568549156189E-001,
1.284033333333334E+009,9.364327043294907E-002,1.101722382009029E-002,-6.964566707611084E-001,6.901910901069641E-001,9.364327043294907E-002,1.101722382009029E-002,-6.964566707611084E-001,6.901910901069641E-001,
1.292400000000000E+009,8.316203951835632E-002,-7.106335833668709E-003,-6.847175955772400E-001,6.939547061920166E-001,8.316203951835632E-002,-7.106335833668709E-003,-6.847175955772400E-001,6.939547061920166E-001,
1.300766666666667E+009,6.379097700119019E-002,-1.516076829284430E-002,-6.622740030288696E-001,7.178248763084412E-001,6.379097700119019E-002,-1.516076829284430E-002,-6.622740030288696E-001,7.178248763084412E-001,
1.309133333333334E+009,4.373513907194138E-002,-1.355248037725687E-002,-6.375384926795960E-001,7.321247458457947E-001,4.373513907194138E-002,-1.355248037725687E-002,-6.375384926795960E-001,7.321247458457947E-001,
1.317500000000000E+009,2.955673448741436E-002,-1.758622121997178E-003,-6.244866847991943E-001,7.625452876091003E-001,2.955673448741436E-002,-1.758622121997178E-003,-6.244866847991943E-001,7.625452876091003E-001,
1.325866666666667E+009,2.521512657403946E-002,1.481069158762693E-002,-6.050105690956116E-001,7.770863771438599E-001,2.521512657403946E-002,1.481069158762693E-002,-6.050105690956116E-001,7.770863771438599E-001,
1.334233333333334E+009,3.347125276923180E-002,3.187209367752075E-002,-5.863404273986816E-001,7.825066447257996E-001,3.347125276923180E-002,3.187209367752075E-002,-5.863404273986816E-001,7.825066447257996E-001,
1.342600000000000E+009,4.902373999357224E-002,4.036554694175720E-002,-5.688041448593140E-001,7.989665865898132E-001,4.902373999357224E-002,4.036554694175720E-002,-5.688041448593140E-001,7.989665865898132E-001,
1.350966666666667E+009,6.896340847015381E-002,3.720710426568985E-002,-5.429019331932068E-001,8.107038140296936E-001,6.896340847015381E-002,3.720710426568985E-002,-5.429019331932068E-001,8.107038140296936E-001,
1.359333333333334E+009,8.365739881992340E-002,2.365505509078503E-002,-5.302344560623169E-001,8.103476166725159E-001,8.365739881992340E-002,2.365505509078503E-002,-5.302344560623169E-001,8.103476166725159E-001,
1.367700000000000E+009,8.938074856996536E-002,4.162279423326254E-003,-4.968956708908081E-001,8.288379311561585E-001,8.938074856996536E-002,4.162279423326254E-003,-4.968956708908081E-001,8.288379311561585E-001,
1.376066666666667E+009,8.547998964786530E-002,-1.746007427573204E-002,-4.819538593292236E-001,8.381453156471252E-001,8.547998964786530E-002,-1.746007427573204E-002,-4.819538593292236E-001,8.381453156471252E-001,
1.384433333333334E+009,6.850039958953857E-002,-3.221024945378304E-002,-4.670431911945343E-001,8.687729239463806E-001,6.850039958953857E-002,-3.221024945378304E-002,-4.670431911945343E-001,8.687729239463806E-001,
1.392800000000000E+009,4.793307557702065E-002,-3.409823775291443E-002,-4.456495642662048E-001,8.770362734794617E-001,4.793307557702065E-002,-3.409823775291443E-002,-4.456495642662048E-001,8.770362734794617E-001,
1.401166666666667E+009,2.772711403667927E-002,-2.647925913333893E-002,-4.188007712364197E-001,8.842900991439819E-001,2.772711403667927E-002,-2.647925913333893E-002,-4.188007712364197E-001,8.842900991439819E-001,
1.409533333333334E+009,1.462208013981581E-002,-9.033291600644589E-003,-3.893568515777588E-001,8.985589742660523E-001,1.462208013981581E-002,-9.033291600644589E-003,-3.893568515777588E-001,8.985589742660523E-001,
1.417900000000000E+009,1.559705752879381E-002,1.380205620080233E-002,-3.699312508106232E-001,8.941560983657837E-001,1.559705752879381E-002,1.380205620080233E-002,-3.699312508106232E-001,8.941560983657837E-001,
1.426266666666667E+009,2.639444731175900E-002,3.014663234353066E-002,-3.327261507511139E-001,9.201082587242127E-001,2.639444731175900E-002,3.014663234353066E-002,-3.327261507511139E-001,9.201082587242127E-001,
1.434633333333334E+009,4.676980525255203E-002,3.782124072313309E-002,-3.235546052455902E-001,9.137755036354065E-001,4.676980525255203E-002,3.782124072313309E-002,-3.235546052455902E-001,9.137755036354065E-001,
1.443000000000000E+009,6.705830246210098E-002,3.454583510756493E-002,-2.996868491172791E-001,9.212151169776917E-001,6.705830246210098E-002,3.454583510756493E-002,-2.996868491172791E-001,9.212151169776917E-001,
1.451366666666667E+009,8.289805054664612E-002,1.882709935307503E-002,-2.743056714534760E-001,9.212478995323181E-001,8.289805054664612E-002,1.882709935307503E-002,-2.743056714534760E-001,9.212478995323181E-001,
1.459733333333334E+009,8.945216238498688E-002,-1.335211214609444E-003,-2.490135282278061E-001,9.476572871208191E-001,8.945216238498688E-002,-1.335211214609444E-003,-2.490135282278061E-001,9.476572871208191E-001,
