% Version 1.00
%
%freq[Hz],re:Trc1_S11,im:Trc1_S11,re:Trc2_S21,im:Trc2_S21,re:Trc3_S11,im:Trc3_S11,re:Trc4_S21,im:Trc4_S21,
6.900000000000000E+008,-5.377779528498650E-002,3.902687504887581E-002,-5.073099732398987E-001,-8.503322005271912E-001,-5.377779528498650E-002,3.902687504887581E-002,-5.073099732398987E-001,-8.503322005271912E-001,
6.983666666666666E+008,-4.593852162361145E-002,3.911666944622994E-002,-5.305525660514832E-001,-8.378747701644898E-001,-4.593852162361145E-002,3.911666944622994E-002,-5.305525660514832E-001,-8.378747701644898E-001,
7.067333333333334E+008,-3.949745744466782E-002,3.448822721838951E-002,-5.551071763038635E-001,-8.118031620979309E-001,-3.949745744466782E-002,3.448822721838951E-002,-5.551071763038635E-001,-8.118031620979309E-001,
7.151000000000000E+008,-3.891739994287491E-002,2.691747434437275E-002,-5.898499488830566E-001,-8.098403811454773E-001,-3.891739994287491E-002,2.691747434437275E-002,-5.898499488830566E-001,-8.098403811454773E-001,
7.234666666666666E+008,-4.069311544299126E-002,2.165807783603668E-002,-6.044626832008362E-001,-8.016471266746521E-001,-4.069311544299126E-002,2.165807783603668E-002,-6.044626832008362E-001,-8.016471266746521E-001,
7.318333333333334E+008,-4.710241407155991E-002,2.013893052935600E-002,-6.238790750503540E-001,-7.713468670845032E-001,-4.710241407155991E-002,2.013893052935600E-002,-6.238790750503540E-001,-7.713468670845032E-001,
7.402000000000000E+008,-5.301672965288162E-002,2.264081500470638E-002,-6.317765712738037E-001,-7.513629794120789E-001,-5.301672965288162E-002,2.264081500470638E-002,-6.317765712738037E-001,-7.513629794120789E-001,
7.485666666666666E+008,-5.847643315792084E-002,2.984499186277390E-002,-6.630373597145081E-001,-7.383230924606323E-001,-5.847643315792084E-002,2.984499186277390E-002,-6.630373597145081E-001,-7.383230924606323E-001,
7.569333333333334E+008,-6.265152990818024E-002,4.015849530696869E-002,-6.815115213394165E-001,-7.260290980339050E-001,-6.265152990818024E-002,4.015849530696869E-002,-6.815115213394165E-001,-7.260290980339050E-001,
7.653000000000000E+008,-5.744278058409691E-002,4.950339347124100E-002,-6.828963160514832E-001,-7.036519050598145E-001,-5.744278058409691E-002,4.950339347124100E-002,-6.828963160514832E-001,-7.036519050598145E-001,
7.736666666666666E+008,-5.189662054181099E-002,5.638680234551430E-002,-7.007804512977600E-001,-7.003256082534790E-001,-5.189662054181099E-002,5.638680234551430E-002,-7.007804512977600E-001,-7.003256082534790E-001,
7.820333333333334E+008,-4.384988918900490E-002,6.033223867416382E-002,-7.325078248977661E-001,-6.748905777931213E-001,-4.384988918900490E-002,6.033223867416382E-002,-7.325078248977661E-001,-6.748905777931213E-001,
7.904000000000000E+008,-3.441432118415833E-002,5.900037661194801E-002,-7.424972653388977E-001,-6.573712825775147E-001,-3.441432118415833E-002,5.900037661194801E-002,-7.424972653388977E-001,-6.573712825775147E-001,
7.987666666666666E+008,-3.009422682225704E-002,5.366284400224686E-002,-7.456024289131165E-001,-6.339311599731445E-001,-3.009422682225704E-002,5.366284400224686E-002,-7.456024289131165E-001,-6.339311599731445E-001,
8.071333333333334E+008,-2.781429328024387E-002,4.754642024636269E-002,-7.772606015205383E-001,-6.066712737083435E-001,-2.781429328024387E-002,4.754642024636269E-002,-7.772606015205383E-001,-6.066712737083435E-001,
8.155000000000000E+008,-3.007299825549126E-002,4.013723880052567E-002,-8.018085956573486E-001,-5.953565835952759E-001,-3.007299825549126E-002,4.013723880052567E-002,-8.018085956573486E-001,-5.953565835952759E-001,
8.238666666666666E+008,-3.620820492506027E-002,3.812362253665924E-002,-8.059571981430054E-001,-5.715215206146240E-001,-3.620820492506027E-002,3.812362253665924E-002,-8.059571981430054E-001,-5.715215206146240E-001,
8.322333333333334E+008,-4.117306321859360E-002,3.993659839034081E-002,-8.172246813774109E-001,-5.519341230392456E-001,-4.117306321859360E-002,3.993659839034081E-002,-8.172246813774109E-001,-5.519341230392456E-001,
8.406000000000000E+008,-4.488503560423851E-002,4.338363558053970E-002,-8.278741836547852E-001,-5.278871655464172E-001,-4.488503560423851E-002,4.338363558053970E-002,-8.278741836547852E-001,-5.278871655464172E-001,
8.489666666666668E+008,-4.668464511632919E-002,5.484781414270401E-002,-8.403730392456055E-001,-5.013421177864075E-001,-4.668464511632919E-002,5.484781414270401E-002,-8.403730392456055E-001,-5.013421177864075E-001,
8.573333333333334E+008,-4.468444734811783E-002,6.321590393781662E-002,-8.424593806266785E-001,-4.699693024158478E-001,-4.468444734811783E-002,6.321590393781662E-002,-8.424593806266785E-001,-4.699693024158478E-001,
8.657000000000000E+008,-3.980351239442825E-002,7.175265252590179E-002,-8.685476779937744E-001,-4.738793373107910E-001,-3.980351239442825E-002,7.175265252590179E-002,-8.685476779937744E-001,-4.738793373107910E-001,
8.740666666666668E+008,-3.107514604926109E-002,7.687932997941971E-002,-8.764541149139404E-001,-4.512240886688232E-001,-3.107514604926109E-002,7.687932997941971E-002,-8.764541149139404E-001,-4.512240886688232E-001,
8.824333333333334E+008,-2.347356267273426E-002,7.900580018758774E-002,-8.923248052597046E-001,-4.253021478652954E-001,-2.347356267273426E-002,7.900580018758774E-002,-8.923248052597046E-001,-4.253021478652954E-001,
8.908000000000000E+008,-1.595002040266991E-002,7.505905628204346E-002,-9.075753688812256E-001,-4.076421260833740E-001,-1.595002040266991E-002,7.505905628204346E-002,-9.075753688812256E-001,-4.076421260833740E-001,
8.991666666666668E+008,-1.017459668219090E-002,6.913514435291290E-002,-9.096706509590149E-001,-3.791073560714722E-001,-1.017459668219090E-002,6.913514435291290E-002,-9.096706509590149E-001,-3.791073560714722E-001,
9.075333333333334E+008,-1.008802745491266E-002,6.131095811724663E-002,-9.197694063186646E-001,-3.558813631534576E-001,-1.008802745491266E-002,6.131095811724663E-002,-9.197694063186646E-001,-3.558813631534576E-001,
9.159000000000000E+008,-1.224613282829523E-002,5.519758164882660E-002,-9.429459571838379E-001,-3.304797112941742E-001,-1.224613282829523E-002,5.519758164882660E-002,-9.429459571838379E-001,-3.304797112941742E-001,
9.242666666666668E+008,-1.844295114278793E-002,5.498962476849556E-002,-9.338785409927368E-001,-3.084952533245087E-001,-1.844295114278793E-002,5.498962476849556E-002,-9.338785409927368E-001,-3.084952533245087E-001,
9.326333333333334E+008,-2.289982326328754E-002,5.744349583983421E-002,-9.497690200805664E-001,-2.940918207168579E-001,-2.289982326328754E-002,5.744349583983421E-002,-9.497690200805664E-001,-2.940918207168579E-001,
9.410000000000000E+008,-2.655809745192528E-002,6.185496598482132E-002,-9.598271250724793E-001,-2.594252526760101E-001,-2.655809745192528E-002,6.185496598482132E-002,-9.598271250724793E-001,-2.594252526760101E-001,
9.493666666666668E+008,-2.720102109014988E-002,7.176931202411652E-002,-9.627354741096497E-001,-2.270873039960861E-001,-2.720102109014988E-002,7.176931202411652E-002,-9.627354741096497E-001,-2.270873039960861E-001,
9.577333333333334E+008,-2.357327379286289E-002,8.252276480197907E-002,-9.707415699958801E-001,-2.125710397958756E-001,-2.357327379286289E-002,8.252276480197907E-002,-9.707415699958801E-001,-2.125710397958756E-001,
9.661000000000000E+008,-1.471660658717156E-002,9.010466188192368E-002,-9.720559120178223E-001,-1.704531013965607E-001,-1.471660658717156E-002,9.010466188192368E-002,-9.720559120178223E-001,-1.704531013965607E-001,
9.744666666666668E+008,-4.251834005117416E-003,9.078975021839142E-002,-9.701568484306335E-001,-1.616440713405609E-001,-4.251834005117416E-003,9.078975021839142E-002,-9.701568484306335E-001,-1.616440713405609E-001,
9.828333333333334E+008,4.632229916751385E-003,9.224231541156769E-002,-9.856676459312439E-001,-1.403181105852127E-001,4.632229916751385E-003,9.224231541156769E-002,-9.856676459312439E-001,-1.403181105852127E-001,
9.912000000000000E+008,1.546871103346348E-002,8.564615249633789E-002,-9.794569015502930E-001,-1.189429610967636E-001,1.546871103346348E-002,8.564615249633789E-002,-9.794569015502930E-001,-1.189429610967636E-001,
9.995666666666668E+008,1.887219026684761E-002,7.803667336702347E-002,-9.939810037612915E-001,-8.031326532363892E-002,1.887219026684761E-002,7.803667336702347E-002,-9.939810037612915E-001,-8.031326532363892E-002,
1.007933333333333E+009,2.251874096691608E-002,6.804314255714417E-002,-1.010594844818115E+000,-6.647627055644989E-002,2.251874096691608E-002,6.804314255714417E-002,-1.010594844818115E+000,-6.647627055644989E-002,
1.016300000000000E+009,1.675046421587467E-002,6.111745163798332E-002,-9.955322742462158E-001,-3.843968361616135E-002,1.675046421587467E-002,6.111745163798332E-002,-9.955322742462158E-001,-3.843968361616135E-002,
1.024666666666667E+009,9.526659734547138E-003,5.675178021192551E-002,-9.918608069419861E-001,-1.283814385533333E-002,9.526659734547138E-003,5.675178021192551E-002,-9.918608069419861E-001,-1.283814385533333E-002,
1.033033333333333E+009,5.357439629733563E-003,6.098603084683418E-002,-9.964453577995300E-001,1.449820026755333E-002,5.357439629733563E-003,6.098603084683418E-002,-9.964453577995300E-001,1.449820026755333E-002,
1.041400000000000E+009,-8.961420389823616E-004,6.631803512573242E-002,-9.996542930603027E-001,3.347878530621529E-002,-8.961420389823616E-004,6.631803512573242E-002,-9.996542930603027E-001,3.347878530621529E-002,
1.049766666666667E+009,3.151796525344253E-003,7.634785771369934E-002,-9.843087196350098E-001,7.259120047092438E-002,3.151796525344253E-003,7.634785771369934E-002,-9.843087196350098E-001,7.259120047092438E-002,
1.058133333333333E+009,8.020785637199879E-003,8.626423031091690E-002,-9.838929176330566E-001,9.304269403219223E-002,8.020785637199879E-003,8.626423031091690E-002,-9.838929176330566E-001,9.304269403219223E-002,
1.066500000000000E+009,1.965811848640442E-002,9.103179723024368E-002,-9.985826015472412E-001,1.290698945522308E-001,1.965811848640442E-002,9.103179723024368E-002,-9.985826015472412E-001,1.290698945522308E-001,
1.074866666666667E+009,3.353115171194077E-002,9.067530930042267E-002,-9.954509139060974E-001,1.478891074657440E-001,3.353115171194077E-002,9.067530930042267E-002,-9.954509139060974E-001,1.478891074657440E-001,
1.083233333333334E+009,4.209118336439133E-002,8.356432616710663E-002,-9.768238663673401E-001,1.681950241327286E-001,4.209118336439133E-002,8.356432616710663E-002,-9.768238663673401E-001,1.681950241327286E-001,
1.091600000000000E+009,4.807924851775169E-002,7.248813658952713E-002,-9.571989178657532E-001,1.880936324596405E-001,4.807924851775169E-002,7.248813658952713E-002,-9.571989178657532E-001,1.880936324596405E-001,
1.099966666666667E+009,4.712016880512238E-002,5.865369737148285E-002,-9.527720808982849E-001,2.277067005634308E-001,4.712016880512238E-002,5.865369737148285E-002,-9.527720808982849E-001,2.277067005634308E-001,
1.108333333333334E+009,3.854488208889961E-002,5.005480721592903E-002,-9.547446966171265E-001,2.342948466539383E-001,3.854488208889961E-002,5.005480721592903E-002,-9.547446966171265E-001,2.342948466539383E-001,
1.116700000000000E+009,2.827280201017857E-002,4.609241709113121E-002,-9.466618299484253E-001,2.696930170059204E-001,2.827280201017857E-002,4.609241709113121E-002,-9.466618299484253E-001,2.696930170059204E-001,
1.125066666666667E+009,1.729177869856358E-002,4.994955286383629E-002,-9.463610053062439E-001,2.854373753070831E-001,1.729177869856358E-002,4.994955286383629E-002,-9.463610053062439E-001,2.854373753070831E-001,
1.133433333333334E+009,1.018951926380396E-002,5.950142443180084E-002,-9.431914091110230E-001,3.327851891517639E-001,1.018951926380396E-002,5.950142443180084E-002,-9.431914091110230E-001,3.327851891517639E-001,
1.141800000000000E+009,9.949282743036747E-003,7.331687957048416E-002,-9.197912216186523E-001,3.486177325248718E-001,9.949282743036747E-003,7.331687957048416E-002,-9.197912216186523E-001,3.486177325248718E-001,
1.150166666666667E+009,2.012713812291622E-002,8.766990900039673E-002,-9.099658131599426E-001,3.473466932773590E-001,2.012713812291622E-002,8.766990900039673E-002,-9.099658131599426E-001,3.473466932773590E-001,
1.158533333333334E+009,3.720321133732796E-002,9.504722803831101E-002,-9.023910760879517E-001,3.864935636520386E-001,3.720321133732796E-002,9.504722803831101E-002,-9.023910760879517E-001,3.864935636520386E-001,
1.166900000000000E+009,5.698583275079727E-002,9.539798647165299E-002,-8.860545158386231E-001,4.065046012401581E-001,5.698583275079727E-002,9.539798647165299E-002,-8.860545158386231E-001,4.065046012401581E-001,
1.175266666666667E+009,7.353913784027100E-002,8.503802865743637E-002,-8.815478086471558E-001,4.379201233386993E-001,7.353913784027100E-002,8.503802865743637E-002,-8.815478086471558E-001,4.379201233386993E-001,
1.183633333333334E+009,8.478713035583496E-002,7.001095265150070E-002,-8.750541210174561E-001,4.490746855735779E-001,8.478713035583496E-002,7.001095265150070E-002,-8.750541210174561E-001,4.490746855735779E-001,
1.192000000000000E+009,8.477012068033218E-002,5.122841149568558E-002,-8.659905195236206E-001,4.715685844421387E-001,8.477012068033218E-002,5.122841149568558E-002,-8.659905195236206E-001,4.715685844421387E-001,
1.200366666666667E+009,7.455319166183472E-002,3.468153253197670E-002,-8.529028892517090E-001,4.921401441097260E-001,7.455319166183472E-002,3.468153253197670E-002,-8.529028892517090E-001,4.921401441097260E-001,
1.208733333333334E+009,5.931801348924637E-002,2.571587078273296E-002,-8.446042537689209E-001,5.351849794387817E-001,5.931801348924637E-002,2.571587078273296E-002,-8.446042537689209E-001,5.351849794387817E-001,
1.217100000000000E+009,4.309714213013649E-002,2.595754154026508E-002,-8.397916555404663E-001,5.416693687438965E-001,4.309714213013649E-002,2.595754154026508E-002,-8.397916555404663E-001,5.416693687438965E-001,
1.225466666666667E+009,3.127218037843704E-002,3.666978701949120E-002,-8.076831698417664E-001,5.686575174331665E-001,3.127218037843704E-002,3.666978701949120E-002,-8.076831698417664E-001,5.686575174331665E-001,
1.233833333333334E+009,2.767899632453919E-002,5.304341390728951E-002,-8.013222217559815E-001,5.816828012466431E-001,2.767899632453919E-002,5.304341390728951E-002,-8.013222217559815E-001,5.816828012466431E-001,
1.242200000000000E+009,3.690481185913086E-002,6.701874732971191E-002,-7.777563929557800E-001,6.150578856468201E-001,3.690481185913086E-002,6.701874732971191E-002,-7.777563929557800E-001,6.150578856468201E-001,
1.250566666666667E+009,5.174465104937553E-002,7.676891982555389E-002,-7.557126879692078E-001,6.198109984397888E-001,5.174465104937553E-002,7.676891982555389E-002,-7.557126879692078E-001,6.198109984397888E-001,
1.258933333333334E+009,7.289185374975205E-002,7.687822729349136E-002,-7.478780150413513E-001,6.438811421394348E-001,7.289185374975205E-002,7.687822729349136E-002,-7.478780150413513E-001,6.438811421394348E-001,
1.267300000000000E+009,9.380705654621124E-002,6.625460088253021E-002,-7.294213175773621E-001,6.546614170074463E-001,9.380705654621124E-002,6.625460088253021E-002,-7.294213175773621E-001,6.546614170074463E-001,
1.275666666666667E+009,1.033346056938171E-001,4.852694645524025E-002,-7.168707847595215E-001,6.653980016708374E-001,1.033346056938171E-001,4.852694645524025E-002,-7.168707847595215E-001,6.653980016708374E-001,
1.284033333333334E+009,1.049535050988197E-001,2.693622186779976E-002,-6.994905471801758E-001,7.046649456024170E-001,1.049535050988197E-001,2.693622186779976E-002,-6.994905471801758E-001,7.046649456024170E-001,
1.292400000000000E+009,9.438178688287735E-002,8.687509223818779E-003,-6.888175606727600E-001,7.089425921440125E-001,9.438178688287735E-002,8.687509223818779E-003,-6.888175606727600E-001,7.089425921440125E-001,
1.300766666666667E+009,7.416150718927383E-002,8.883846021490172E-005,-6.650390028953552E-001,7.326636314392090E-001,7.416150718927383E-002,8.883846021490172E-005,-6.650390028953552E-001,7.326636314392090E-001,
1.309133333333334E+009,5.340611189603806E-002,9.714781772345305E-004,-6.405787467956543E-001,7.474408149719238E-001,5.340611189603806E-002,9.714781772345305E-004,-6.405787467956543E-001,7.474408149719238E-001,
1.317500000000000E+009,3.877783939242363E-002,1.271749846637249E-002,-6.256802678108215E-001,7.792990207672119E-001,3.877783939242363E-002,1.271749846637249E-002,-6.256802678108215E-001,7.792990207672119E-001,
1.325866666666667E+009,3.425332531332970E-002,2.914758026599884E-002,-6.060841083526611E-001,7.914392352104187E-001,3.425332531332970E-002,2.914758026599884E-002,-6.060841083526611E-001,7.914392352104187E-001,
1.334233333333334E+009,4.328482225537300E-002,4.647475481033325E-002,-5.872641801834106E-001,7.991560101509094E-001,4.328482225537300E-002,4.647475481033325E-002,-5.872641801834106E-001,7.991560101509094E-001,
1.342600000000000E+009,5.994223803281784E-002,5.439571663737297E-002,-5.724051594734192E-001,8.157157301902771E-001,5.994223803281784E-002,5.439571663737297E-002,-5.724051594734192E-001,8.157157301902771E-001,
1.350966666666667E+009,8.159851282835007E-002,5.131081864237785E-002,-5.429741740226746E-001,8.270241618156433E-001,8.159851282835007E-002,5.131081864237785E-002,-5.429741740226746E-001,8.270241618156433E-001,
1.359333333333334E+009,9.740926325321198E-002,3.731839358806610E-002,-5.289075970649719E-001,8.277633190155029E-001,9.740926325321198E-002,3.731839358806610E-002,-5.289075970649719E-001,8.277633190155029E-001,
1.367700000000000E+009,1.040101274847984E-001,1.735222153365612E-002,-4.957853257656097E-001,8.449349403381348E-001,1.040101274847984E-001,1.735222153365612E-002,-4.957853257656097E-001,8.449349403381348E-001,
1.376066666666667E+009,1.009940728545189E-001,-4.919096361845732E-003,-4.801866114139557E-001,8.567272424697876E-001,1.009940728545189E-001,-4.919096361845732E-003,-4.801866114139557E-001,8.567272424697876E-001,
1.384433333333334E+009,8.311182260513306E-002,-2.022239752113819E-002,-4.625659584999085E-001,8.807420730590820E-001,8.311182260513306E-002,-2.022239752113819E-002,-4.625659584999085E-001,8.807420730590820E-001,
1.392800000000000E+009,6.252361834049225E-002,-2.228786423802376E-002,-4.419526159763336E-001,8.944131731987000E-001,6.252361834049225E-002,-2.228786423802376E-002,-4.419526159763336E-001,8.944131731987000E-001,
1.401166666666667E+009,4.116180166602135E-002,-1.460230816155672E-002,-4.170141220092773E-001,9.020713567733765E-001,4.116180166602135E-002,-1.460230816155672E-002,-4.170141220092773E-001,9.020713567733765E-001,
1.409533333333334E+009,2.712254598736763E-002,2.689918968826532E-003,-3.870535492897034E-001,9.155377745628357E-001,2.712254598736763E-002,2.689918968826532E-003,-3.870535492897034E-001,9.155377745628357E-001,
1.417900000000000E+009,2.832307480275631E-002,2.604099549353123E-002,-3.663711249828339E-001,9.113401174545288E-001,2.832307480275631E-002,2.604099549353123E-002,-3.663711249828339E-001,9.113401174545288E-001,
1.426266666666667E+009,3.926596790552139E-002,4.235628247261047E-002,-3.303976953029633E-001,9.357037544250488E-001,3.926596790552139E-002,4.235628247261047E-002,-3.303976953029633E-001,9.357037544250488E-001,
1.434633333333334E+009,6.027825176715851E-002,4.956964030861855E-002,-3.207290172576904E-001,9.302682280540466E-001,6.027825176715851E-002,4.956964030861855E-002,-3.207290172576904E-001,9.302682280540466E-001,
1.443000000000000E+009,8.220021426677704E-002,4.524326696991921E-002,-2.964330315589905E-001,9.369491934776306E-001,8.220021426677704E-002,4.524326696991921E-002,-2.964330315589905E-001,9.369491934776306E-001,
1.451366666666667E+009,9.865759313106537E-002,2.850173972547054E-002,-2.683483958244324E-001,9.395576715469360E-001,9.865759313106537E-002,2.850173972547054E-002,-2.683483958244324E-001,9.395576715469360E-001,
1.459733333333334E+009,1.058929339051247E-001,7.609796244651079E-003,-2.406381517648697E-001,9.670315384864807E-001,1.058929339051247E-001,7.609796244651079E-003,-2.406381517648697E-001,9.670315384864807E-001,
