% Version 1.00
%
%freq[Hz],re:Trc1_S11,im:Trc1_S11,re:Trc2_S21,im:Trc2_S21,re:Trc3_S11,im:Trc3_S11,re:Trc4_S21,im:Trc4_S21,
6.900000000000000E+008,-1.042010560631752E-001,5.037674214690924E-003,-4.598545134067535E-001,-8.688477873802185E-001,-1.042010560631752E-001,5.037674214690924E-003,-4.598545134067535E-001,-8.688477873802185E-001,
6.983666666666666E+008,-9.565198421478272E-002,7.778161671012640E-003,-4.896287918090820E-001,-8.589375615119934E-001,-9.565198421478272E-002,7.778161671012640E-003,-4.896287918090820E-001,-8.589375615119934E-001,
7.067333333333334E+008,-8.987447619438171E-002,4.778988193720579E-003,-5.122606158256531E-001,-8.344506621360779E-001,-8.987447619438171E-002,4.778988193720579E-003,-5.122606158256531E-001,-8.344506621360779E-001,
7.151000000000000E+008,-8.916768431663513E-002,-6.177595350891352E-004,-5.488293766975403E-001,-8.336352705955505E-001,-8.916768431663513E-002,-6.177595350891352E-004,-5.488293766975403E-001,-8.336352705955505E-001,
7.234666666666666E+008,-9.074747562408447E-002,-5.088115576654673E-003,-5.629354119300842E-001,-8.177772164344788E-001,-9.074747562408447E-002,-5.088115576654673E-003,-5.629354119300842E-001,-8.177772164344788E-001,
7.318333333333334E+008,-9.724308550357819E-002,-6.253715604543686E-003,-5.834972858428955E-001,-8.004575967788696E-001,-9.724308550357819E-002,-6.253715604543686E-003,-5.834972858428955E-001,-8.004575967788696E-001,
7.402000000000000E+008,-1.033233478665352E-001,-3.304780926555395E-003,-5.941124558448792E-001,-7.754597663879395E-001,-1.033233478665352E-001,-3.304780926555395E-003,-5.941124558448792E-001,-7.754597663879395E-001,
7.485666666666666E+008,-1.084839925169945E-001,4.392479546368122E-003,-6.246893405914307E-001,-7.641108036041260E-001,-1.084839925169945E-001,4.392479546368122E-003,-6.246893405914307E-001,-7.641108036041260E-001,
7.569333333333334E+008,-1.128700524568558E-001,1.496672630310059E-002,-6.435738205909729E-001,-7.507630586624146E-001,-1.128700524568558E-001,1.496672630310059E-002,-6.435738205909729E-001,-7.507630586624146E-001,
7.653000000000000E+008,-1.073977202177048E-001,2.532379142940044E-002,-6.534537672996521E-001,-7.320530414581299E-001,-1.073977202177048E-001,2.532379142940044E-002,-6.534537672996521E-001,-7.320530414581299E-001,
7.736666666666666E+008,-1.012042686343193E-001,3.334963321685791E-002,-6.667007803916931E-001,-7.281654477119446E-001,-1.012042686343193E-001,3.334963321685791E-002,-6.667007803916931E-001,-7.281654477119446E-001,
7.820333333333334E+008,-9.244353324174881E-002,3.933035209774971E-002,-7.012551426887512E-001,-7.016351222991943E-001,-9.244353324174881E-002,3.933035209774971E-002,-7.012551426887512E-001,-7.016351222991943E-001,
7.904000000000000E+008,-8.218354731798172E-002,4.014584049582481E-002,-7.116991281509399E-001,-6.827940344810486E-001,-8.218354731798172E-002,4.014584049582481E-002,-7.116991281509399E-001,-6.827940344810486E-001,
7.987666666666666E+008,-7.745230197906494E-002,3.747347742319107E-002,-7.180989384651184E-001,-6.664037108421326E-001,-7.745230197906494E-002,3.747347742319107E-002,-7.180989384651184E-001,-6.664037108421326E-001,
8.071333333333334E+008,-7.546443492174149E-002,3.148989379405975E-002,-7.472722530364990E-001,-6.352948546409607E-001,-7.546443492174149E-002,3.148989379405975E-002,-7.472722530364990E-001,-6.352948546409607E-001,
8.155000000000000E+008,-7.686641067266464E-002,2.620975300669670E-002,-7.746093273162842E-001,-6.238083243370056E-001,-7.686641067266464E-002,2.620975300669670E-002,-7.746093273162842E-001,-6.238083243370056E-001,
8.238666666666666E+008,-8.292662352323532E-002,2.477998286485672E-002,-7.819324135780335E-001,-5.999001860618591E-001,-8.292662352323532E-002,2.477998286485672E-002,-7.819324135780335E-001,-5.999001860618591E-001,
8.322333333333334E+008,-8.791758120059967E-002,2.703541330993176E-002,-7.917692661285400E-001,-5.810322165489197E-001,-8.791758120059967E-002,2.703541330993176E-002,-7.917692661285400E-001,-5.810322165489197E-001,
8.406000000000000E+008,-9.216457605361939E-002,3.065268881618977E-002,-8.048794865608215E-001,-5.594001412391663E-001,-9.216457605361939E-002,3.065268881618977E-002,-8.048794865608215E-001,-5.594001412391663E-001,
8.489666666666668E+008,-9.407603740692139E-002,4.283745959401131E-002,-8.184561729431152E-001,-5.307175517082214E-001,-9.407603740692139E-002,4.283745959401131E-002,-8.184561729431152E-001,-5.307175517082214E-001,
8.573333333333334E+008,-9.184904396533966E-002,5.174792557954788E-002,-8.207369446754456E-001,-4.989719688892365E-001,-9.184904396533966E-002,5.174792557954788E-002,-8.207369446754456E-001,-4.989719688892365E-001,
8.657000000000000E+008,-8.585530519485474E-002,6.042145192623138E-002,-8.488449454307556E-001,-5.035238265991211E-001,-8.585530519485474E-002,6.042145192623138E-002,-8.488449454307556E-001,-5.035238265991211E-001,
8.740666666666668E+008,-7.666447758674622E-002,6.709947437047958E-002,-8.566358685493469E-001,-4.806613624095917E-001,-7.666447758674622E-002,6.709947437047958E-002,-8.566358685493469E-001,-4.806613624095917E-001,
8.824333333333334E+008,-6.812389194965363E-002,7.001571357250214E-002,-8.760321140289307E-001,-4.566834568977356E-001,-6.812389194965363E-002,7.001571357250214E-002,-8.760321140289307E-001,-4.566834568977356E-001,
8.908000000000000E+008,-5.945846438407898E-002,6.817219406366348E-002,-8.901870250701904E-001,-4.385524392127991E-001,-5.945846438407898E-002,6.817219406366348E-002,-8.901870250701904E-001,-4.385524392127991E-001,
8.991666666666668E+008,-5.255187675356865E-002,6.378156691789627E-002,-8.916642069816589E-001,-4.091848433017731E-001,-5.255187675356865E-002,6.378156691789627E-002,-8.916642069816589E-001,-4.091848433017731E-001,
9.075333333333334E+008,-5.178028717637062E-002,5.805952847003937E-002,-9.068657159805298E-001,-3.854972422122955E-001,-5.178028717637062E-002,5.805952847003937E-002,-9.068657159805298E-001,-3.854972422122955E-001,
9.159000000000000E+008,-5.342683941125870E-002,5.193181335926056E-002,-9.297794103622437E-001,-3.592815697193146E-001,-5.342683941125870E-002,5.193181335926056E-002,-9.297794103622437E-001,-3.592815697193146E-001,
9.242666666666668E+008,-5.940908193588257E-002,5.283961445093155E-002,-9.210028648376465E-001,-3.375267684459686E-001,-5.940908193588257E-002,5.283961445093155E-002,-9.210028648376465E-001,-3.375267684459686E-001,
9.326333333333334E+008,-6.404836475849152E-002,5.546025559306145E-002,-9.374499320983887E-001,-3.214349448680878E-001,-6.404836475849152E-002,5.546025559306145E-002,-9.374499320983887E-001,-3.214349448680878E-001,
9.410000000000000E+008,-6.778568029403687E-002,6.024693697690964E-002,-9.488598108291626E-001,-2.863658070564270E-001,-6.778568029403687E-002,6.024693697690964E-002,-9.488598108291626E-001,-2.863658070564270E-001,
9.493666666666668E+008,-6.893327832221985E-002,7.014758139848709E-002,-9.537403583526611E-001,-2.565581500530243E-001,-6.893327832221985E-002,7.014758139848709E-002,-9.537403583526611E-001,-2.565581500530243E-001,
9.577333333333334E+008,-6.532167643308640E-002,8.108858764171600E-002,-9.598679542541504E-001,-2.424759119749069E-001,-6.532167643308640E-002,8.108858764171600E-002,-9.598679542541504E-001,-2.424759119749069E-001,
9.661000000000000E+008,-5.618964880704880E-002,8.863858133554459E-002,-9.619893431663513E-001,-1.993062198162079E-001,-5.618964880704880E-002,8.863858133554459E-002,-9.619893431663513E-001,-1.993062198162079E-001,
9.744666666666668E+008,-4.400194436311722E-002,8.991416543722153E-002,-9.604958295822144E-001,-1.890031099319458E-001,-4.400194436311722E-002,8.991416543722153E-002,-9.604958295822144E-001,-1.890031099319458E-001,
9.828333333333334E+008,-3.425820544362068E-002,9.229463338851929E-002,-9.774968028068543E-001,-1.698209792375565E-001,-3.425820544362068E-002,9.229463338851929E-002,-9.774968028068543E-001,-1.698209792375565E-001,
9.912000000000000E+008,-2.273477427661419E-002,8.706014603376389E-002,-9.754406213760376E-001,-1.469262093305588E-001,-2.273477427661419E-002,8.706014603376389E-002,-9.754406213760376E-001,-1.469262093305588E-001,
9.995666666666668E+008,-1.812440343201160E-002,8.017694205045700E-002,-9.894644021987915E-001,-1.098659336566925E-001,-1.812440343201160E-002,8.017694205045700E-002,-9.894644021987915E-001,-1.098659336566925E-001,
1.007933333333333E+009,-1.315195299685001E-002,7.168521732091904E-002,-1.002634406089783E+000,-9.185735136270523E-002,-1.315195299685001E-002,7.168521732091904E-002,-1.002634406089783E+000,-9.185735136270523E-002,
1.016300000000000E+009,-1.825631223618984E-002,6.628327816724777E-002,-9.913679957389832E-001,-6.524375826120377E-002,-1.825631223618984E-002,6.628327816724777E-002,-9.913679957389832E-001,-6.524375826120377E-002,
1.024666666666667E+009,-2.553275786340237E-002,6.230701506137848E-002,-9.869246482849121E-001,-3.733748570084572E-002,-2.553275786340237E-002,6.230701506137848E-002,-9.869246482849121E-001,-3.733748570084572E-002,
1.033033333333333E+009,-3.006087429821491E-002,6.730466336011887E-002,-9.943727850914002E-001,-1.053983345627785E-002,-3.006087429821491E-002,6.730466336011887E-002,-9.943727850914002E-001,-1.053983345627785E-002,
1.041400000000000E+009,-3.626249358057976E-002,7.259644567966461E-002,-9.949467778205872E-001,1.166879199445248E-002,-3.626249358057976E-002,7.259644567966461E-002,-9.949467778205872E-001,1.166879199445248E-002,
1.049766666666667E+009,-3.207268938422203E-002,8.276122808456421E-002,-9.808841347694397E-001,4.723130539059639E-002,-3.207268938422203E-002,8.276122808456421E-002,-9.808841347694397E-001,4.723130539059639E-002,
1.058133333333333E+009,-2.755012176930904E-002,9.260640293359757E-002,-9.819458723068237E-001,6.907061487436295E-002,-2.755012176930904E-002,9.260640293359757E-002,-9.819458723068237E-001,6.907061487436295E-002,
1.066500000000000E+009,-1.514732372015715E-002,9.752839058637619E-002,-9.978206753730774E-001,1.028991565108299E-001,-1.514732372015715E-002,9.752839058637619E-002,-9.978206753730774E-001,1.028991565108299E-001,
1.074866666666667E+009,-2.336033066967502E-004,9.718441963195801E-002,-9.923377633094788E-001,1.246154755353928E-001,-2.336033066967502E-004,9.718441963195801E-002,-9.923377633094788E-001,1.246154755353928E-001,
1.083233333333334E+009,9.806961752474308E-003,8.965947479009628E-002,-9.765965342521668E-001,1.461587250232697E-001,9.806961752474308E-003,8.965947479009628E-002,-9.765965342521668E-001,1.461587250232697E-001,
1.091600000000000E+009,1.770165376365185E-002,7.989241182804108E-002,-9.590498208999634E-001,1.665459871292114E-001,1.770165376365185E-002,7.989241182804108E-002,-9.590498208999634E-001,1.665459871292114E-001,
1.099966666666667E+009,1.796744577586651E-002,6.645150482654572E-002,-9.559751152992249E-001,2.058334499597549E-001,1.796744577586651E-002,6.645150482654572E-002,-9.559751152992249E-001,2.058334499597549E-001,
1.108333333333334E+009,1.068441942334175E-002,5.859055370092392E-002,-9.547709226608276E-001,2.142039984464645E-001,1.068441942334175E-002,5.859055370092392E-002,-9.547709226608276E-001,2.142039984464645E-001,
1.116700000000000E+009,8.067914750427008E-004,5.544945225119591E-002,-9.474195241928101E-001,2.490128576755524E-001,8.067914750427008E-004,5.544945225119591E-002,-9.474195241928101E-001,2.490128576755524E-001,
1.125066666666667E+009,-9.859274141490459E-003,6.047254055738449E-002,-9.476036429405212E-001,2.664767503738403E-001,-9.859274141490459E-003,6.047254055738449E-002,-9.476036429405212E-001,2.664767503738403E-001,
1.133433333333334E+009,-1.692301034927368E-002,7.052031159400940E-002,-9.451934099197388E-001,3.119442760944367E-001,-1.692301034927368E-002,7.052031159400940E-002,-9.451934099197388E-001,3.119442760944367E-001,
1.141800000000000E+009,-1.755397953093052E-002,8.449262380599976E-002,-9.215584993362427E-001,3.265239000320435E-001,-1.755397953093052E-002,8.449262380599976E-002,-9.215584993362427E-001,3.265239000320435E-001,
1.150166666666667E+009,-7.779414765536785E-003,9.885752946138382E-002,-9.126496315002441E-001,3.263495266437531E-001,-7.779414765536785E-003,9.885752946138382E-002,-9.126496315002441E-001,3.263495266437531E-001,
1.158533333333334E+009,8.801460266113281E-003,1.067229434847832E-001,-9.051892161369324E-001,3.673252761363983E-001,8.801460266113281E-003,1.067229434847832E-001,-9.051892161369324E-001,3.673252761363983E-001,
1.166900000000000E+009,2.913883514702320E-002,1.070500239729881E-001,-8.904626369476318E-001,3.872926831245422E-001,2.913883514702320E-002,1.070500239729881E-001,-8.904626369476318E-001,3.872926831245422E-001,
1.175266666666667E+009,4.619700089097023E-002,9.616732597351074E-002,-8.850994110107422E-001,4.173277616500855E-001,4.619700089097023E-002,9.616732597351074E-002,-8.850994110107422E-001,4.173277616500855E-001,
1.183633333333334E+009,5.972251668572426E-002,8.151070028543472E-002,-8.834980130195618E-001,4.308608770370483E-001,5.972251668572426E-002,8.151070028543472E-002,-8.834980130195618E-001,4.308608770370483E-001,
1.192000000000000E+009,6.088682264089584E-002,6.284037232398987E-002,-8.717850446701050E-001,4.530868828296661E-001,6.088682264089584E-002,6.284037232398987E-002,-8.717850446701050E-001,4.530868828296661E-001,
1.200366666666667E+009,5.238016322255135E-002,4.611370339989662E-002,-8.587644696235657E-001,4.762898981571198E-001,5.238016322255135E-002,4.611370339989662E-002,-8.587644696235657E-001,4.762898981571198E-001,
1.208733333333334E+009,3.829277306795120E-002,3.773562982678413E-002,-8.519751429557800E-001,5.203312039375305E-001,3.829277306795120E-002,3.773562982678413E-002,-8.519751429557800E-001,5.203312039375305E-001,
1.217100000000000E+009,2.327830158174038E-002,3.904357179999352E-002,-8.474963307380676E-001,5.301966071128845E-001,2.327830158174038E-002,3.904357179999352E-002,-8.474963307380676E-001,5.301966071128845E-001,
1.225466666666667E+009,1.140332780778408E-002,5.050361156463623E-002,-8.138632774353027E-001,5.551254153251648E-001,1.140332780778408E-002,5.050361156463623E-002,-8.138632774353027E-001,5.551254153251648E-001,
1.233833333333334E+009,7.934608496725559E-003,6.730537116527557E-002,-8.087322115898132E-001,5.660510063171387E-001,7.934608496725559E-003,6.730537116527557E-002,-8.087322115898132E-001,5.660510063171387E-001,
1.242200000000000E+009,1.733399741351605E-002,8.177263289690018E-002,-7.822763919830322E-001,6.002259850502014E-001,1.733399741351605E-002,8.177263289690018E-002,-7.822763919830322E-001,6.002259850502014E-001,
1.250566666666667E+009,3.162097930908203E-002,9.175387769937515E-002,-7.606379389762878E-001,6.038037538528442E-001,3.162097930908203E-002,9.175387769937515E-002,-7.606379389762878E-001,6.038037538528442E-001,
1.258933333333334E+009,5.286102741956711E-002,9.104519337415695E-002,-7.559480071067810E-001,6.280469298362732E-001,5.286102741956711E-002,9.104519337415695E-002,-7.559480071067810E-001,6.280469298362732E-001,
1.267300000000000E+009,7.345572859048843E-002,8.025950938463211E-002,-7.370517253875732E-001,6.417416334152222E-001,7.345572859048843E-002,8.025950938463211E-002,-7.370517253875732E-001,6.417416334152222E-001,
1.275666666666667E+009,8.318950235843658E-002,6.153566390275955E-002,-7.242140769958496E-001,6.504272818565369E-001,8.318950235843658E-002,6.153566390275955E-002,-7.242140769958496E-001,6.504272818565369E-001,
1.284033333333334E+009,8.652132004499435E-002,3.985381126403809E-002,-7.080911993980408E-001,6.946626305580139E-001,8.652132004499435E-002,3.985381126403809E-002,-7.080911993980408E-001,6.946626305580139E-001,
1.292400000000000E+009,7.673387229442596E-002,2.124855481088162E-002,-6.961097121238709E-001,6.970497965812683E-001,7.673387229442596E-002,2.124855481088162E-002,-6.961097121238709E-001,6.970497965812683E-001,
1.300766666666667E+009,5.809101462364197E-002,1.263559237122536E-002,-6.738368272781372E-001,7.220987677574158E-001,5.809101462364197E-002,1.263559237122536E-002,-6.738368272781372E-001,7.220987677574158E-001,
1.309133333333334E+009,3.875182569026947E-002,1.433692686259747E-002,-6.482772231101990E-001,7.374115586280823E-001,3.875182569026947E-002,1.433692686259747E-002,-6.482772231101990E-001,7.374115586280823E-001,
1.317500000000000E+009,2.499137073755264E-002,2.644951827824116E-002,-6.351807713508606E-001,7.689470648765564E-001,2.499137073755264E-002,2.644951827824116E-002,-6.351807713508606E-001,7.689470648765564E-001,
1.325866666666667E+009,2.125515230000019E-002,4.368160292506218E-002,-6.148373484611511E-001,7.829471230506897E-001,2.125515230000019E-002,4.368160292506218E-002,-6.148373484611511E-001,7.829471230506897E-001,
1.334233333333334E+009,3.050281852483749E-002,6.119447946548462E-002,-5.952988862991333E-001,7.883438467979431E-001,3.050281852483749E-002,6.119447946548462E-002,-5.952988862991333E-001,7.883438467979431E-001,
1.342600000000000E+009,4.706808552145958E-002,6.969847530126572E-002,-5.782514810562134E-001,8.049740791320801E-001,4.706808552145958E-002,6.969847530126572E-002,-5.782514810562134E-001,8.049740791320801E-001,
1.350966666666667E+009,6.818413734436035E-002,6.630209833383560E-002,-5.509841442108154E-001,8.164630532264710E-001,6.818413734436035E-002,6.630209833383560E-002,-5.509841442108154E-001,8.164630532264710E-001,
1.359333333333334E+009,8.367138355970383E-002,5.183873325586319E-002,-5.392931699752808E-001,8.176202178001404E-001,8.367138355970383E-002,5.183873325586319E-002,-5.392931699752808E-001,8.176202178001404E-001,
1.367700000000000E+009,9.006787091493607E-002,3.110649622976780E-002,-5.049850940704346E-001,8.368874192237854E-001,9.006787091493607E-002,3.110649622976780E-002,-5.049850940704346E-001,8.368874192237854E-001,
1.376066666666667E+009,8.707141876220703E-002,8.481194265186787E-003,-4.896543920040131E-001,8.470552563667297E-001,8.707141876220703E-002,8.481194265186787E-003,-4.896543920040131E-001,8.470552563667297E-001,
1.384433333333334E+009,7.033359259366989E-002,-7.141975220292807E-003,-4.735149443149567E-001,8.781402111053467E-001,7.033359259366989E-002,-7.141975220292807E-003,-4.735149443149567E-001,8.781402111053467E-001,
1.392800000000000E+009,5.049838498234749E-002,-9.345950558781624E-003,-4.532844126224518E-001,8.874928355216980E-001,5.049838498234749E-002,-9.345950558781624E-003,-4.532844126224518E-001,8.874928355216980E-001,
1.401166666666667E+009,3.102927096188068E-002,-1.743760891258717E-003,-4.244382381439209E-001,8.940458297729492E-001,3.102927096188068E-002,-1.743760891258717E-003,-4.244382381439209E-001,8.940458297729492E-001,
1.409533333333334E+009,1.901903003454208E-002,1.552466396242380E-002,-3.939416706562042E-001,9.091944694519043E-001,1.901903003454208E-002,1.552466396242380E-002,-3.939416706562042E-001,9.091944694519043E-001,
1.417900000000000E+009,2.118419669568539E-002,3.898297995328903E-002,-3.741938173770905E-001,9.031812548637390E-001,2.118419669568539E-002,3.898297995328903E-002,-3.741938173770905E-001,9.031812548637390E-001,
1.426266666666667E+009,3.298158943653107E-002,5.552961304783821E-002,-3.377592861652374E-001,9.298020005226135E-001,3.298158943653107E-002,5.552961304783821E-002,-3.377592861652374E-001,9.298020005226135E-001,
1.434633333333334E+009,5.451194196939468E-002,6.289864331483841E-002,-3.273060321807861E-001,9.234558343887329E-001,5.451194196939468E-002,6.289864331483841E-002,-3.273060321807861E-001,9.234558343887329E-001,
1.443000000000000E+009,7.552961260080338E-002,5.896390974521637E-002,-3.023707568645477E-001,9.318715333938599E-001,7.552961260080338E-002,5.896390974521637E-002,-3.023707568645477E-001,9.318715333938599E-001,
1.451366666666667E+009,9.189421683549881E-002,4.206228628754616E-002,-2.770527005195618E-001,9.316578507423401E-001,9.189421683549881E-002,4.206228628754616E-002,-2.770527005195618E-001,9.316578507423401E-001,
1.459733333333334E+009,9.871459752321243E-002,2.055309526622295E-002,-2.518044412136078E-001,9.589477777481079E-001,9.871459752321243E-002,2.055309526622295E-002,-2.518044412136078E-001,9.589477777481079E-001,
