% Version 1.00
%
%freq[Hz],re:Trc1_S11,im:Trc1_S11,re:Trc2_S21,im:Trc2_S21,re:Trc3_S11,im:Trc3_S11,re:Trc4_S21,im:Trc4_S21,
6.900000000000000E+008,-4.501718282699585E-002,3.597684204578400E-002,-4.993087053298950E-001,-8.533709049224854E-001,-4.501718282699585E-002,3.597684204578400E-002,-4.993087053298950E-001,-8.533709049224854E-001,
6.983666666666666E+008,-3.701654821634293E-002,3.630345314741135E-002,-5.244543552398682E-001,-8.423407673835754E-001,-3.701654821634293E-002,3.630345314741135E-002,-5.244543552398682E-001,-8.423407673835754E-001,
7.067333333333334E+008,-3.104135207831860E-002,3.173367306590080E-002,-5.473486781120300E-001,-8.168336153030396E-001,-3.104135207831860E-002,3.173367306590080E-002,-5.473486781120300E-001,-8.168336153030396E-001,
7.151000000000000E+008,-3.048717230558395E-002,2.410183288156986E-002,-5.826970338821411E-001,-8.151022195816040E-001,-3.048717230558395E-002,2.410183288156986E-002,-5.826970338821411E-001,-8.151022195816040E-001,
7.234666666666666E+008,-3.226810693740845E-002,1.880709640681744E-002,-5.956353545188904E-001,-8.002438545227051E-001,-3.226810693740845E-002,1.880709640681744E-002,-5.956353545188904E-001,-8.002438545227051E-001,
7.318333333333334E+008,-3.952602297067642E-002,1.650532521307468E-002,-6.130142807960510E-001,-7.827721238136292E-001,-3.952602297067642E-002,1.650532521307468E-002,-6.130142807960510E-001,-7.827721238136292E-001,
7.402000000000000E+008,-4.563729837536812E-002,1.838396117091179E-002,-6.238828897476196E-001,-7.572412490844727E-001,-4.563729837536812E-002,1.838396117091179E-002,-6.238828897476196E-001,-7.572412490844727E-001,
7.485666666666666E+008,-5.096037313342094E-002,2.528221905231476E-002,-6.538084745407105E-001,-7.448960542678833E-001,-5.096037313342094E-002,2.528221905231476E-002,-6.538084745407105E-001,-7.448960542678833E-001,
7.569333333333334E+008,-5.495717003941536E-002,3.495524823665619E-002,-6.723009943962097E-001,-7.313710451126099E-001,-5.495717003941536E-002,3.495524823665619E-002,-6.723009943962097E-001,-7.313710451126099E-001,
7.653000000000000E+008,-4.976340010762215E-002,4.374195635318756E-002,-6.803356409072876E-001,-7.121509313583374E-001,-4.976340010762215E-002,4.374195635318756E-002,-6.803356409072876E-001,-7.121509313583374E-001,
7.736666666666666E+008,-4.371711239218712E-002,5.024389177560806E-002,-6.930369138717651E-001,-7.084470987319946E-001,-4.371711239218712E-002,5.024389177560806E-002,-6.930369138717651E-001,-7.084470987319946E-001,
7.820333333333334E+008,-3.526742011308670E-002,5.415066704154015E-002,-7.261592745780945E-001,-6.806026697158814E-001,-3.526742011308670E-002,5.415066704154015E-002,-7.261592745780945E-001,-6.806026697158814E-001,
7.904000000000000E+008,-2.551613748073578E-002,5.295899510383606E-002,-7.354429960250855E-001,-6.624799966812134E-001,-2.551613748073578E-002,5.295899510383606E-002,-7.354429960250855E-001,-6.624799966812134E-001,
7.987666666666666E+008,-2.127178013324738E-002,4.758353531360626E-002,-7.407842278480530E-001,-6.462019085884094E-001,-2.127178013324738E-002,4.758353531360626E-002,-7.407842278480530E-001,-6.462019085884094E-001,
8.071333333333334E+008,-1.922876015305519E-002,4.101189225912094E-002,-7.677475214004517E-001,-6.145094037055969E-001,-1.922876015305519E-002,4.101189225912094E-002,-7.677475214004517E-001,-6.145094037055969E-001,
8.155000000000000E+008,-2.201343327760696E-002,3.382627293467522E-002,-7.939760088920593E-001,-6.036278009414673E-001,-2.201343327760696E-002,3.382627293467522E-002,-7.939760088920593E-001,-6.036278009414673E-001,
8.238666666666666E+008,-2.847710810601711E-002,3.174469992518425E-002,-8.004012703895569E-001,-5.800117254257202E-001,-2.847710810601711E-002,3.174469992518425E-002,-8.004012703895569E-001,-5.800117254257202E-001,
8.322333333333334E+008,-3.384568169713020E-002,3.296143189072609E-002,-8.102739453315735E-001,-5.623407363891602E-001,-3.384568169713020E-002,3.296143189072609E-002,-8.102739453315735E-001,-5.623407363891602E-001,
8.406000000000000E+008,-3.852865099906921E-002,3.611871600151062E-002,-8.219194412231445E-001,-5.400250554084778E-001,-3.852865099906921E-002,3.611871600151062E-002,-8.219194412231445E-001,-5.400250554084778E-001,
8.489666666666668E+008,-4.016195982694626E-002,4.716384783387184E-002,-8.340773582458496E-001,-5.108005404472351E-001,-4.016195982694626E-002,4.716384783387184E-002,-8.340773582458496E-001,-5.108005404472351E-001,
8.573333333333334E+008,-3.831448778510094E-002,5.500806495547295E-002,-8.366930484771729E-001,-4.801980853080750E-001,-3.831448778510094E-002,5.500806495547295E-002,-8.366930484771729E-001,-4.801980853080750E-001,
8.657000000000000E+008,-3.325739130377770E-002,6.272660940885544E-002,-8.640783429145813E-001,-4.843337535858154E-001,-3.325739130377770E-002,6.272660940885544E-002,-8.640783429145813E-001,-4.843337535858154E-001,
8.740666666666668E+008,-2.451191656291485E-002,6.779601424932480E-002,-8.704735040664673E-001,-4.596030414104462E-001,-2.451191656291485E-002,6.779601424932480E-002,-8.704735040664673E-001,-4.596030414104462E-001,
8.824333333333334E+008,-1.652484945952892E-002,6.924640387296677E-002,-8.889824151992798E-001,-4.357794523239136E-001,-1.652484945952892E-002,6.924640387296677E-002,-8.889824151992798E-001,-4.357794523239136E-001,
8.908000000000000E+008,-8.604852482676506E-003,6.567676365375519E-002,-9.025146365165710E-001,-4.176864326000214E-001,-8.604852482676506E-003,6.567676365375519E-002,-9.025146365165710E-001,-4.176864326000214E-001,
8.991666666666668E+008,-3.262251615524292E-003,5.963138118386269E-002,-9.028556346893311E-001,-3.906562328338623E-001,-3.262251615524292E-003,5.963138118386269E-002,-9.028556346893311E-001,-3.906562328338623E-001,
9.075333333333334E+008,-2.895795507356525E-003,5.191485211253166E-002,-9.166612029075623E-001,-3.656483590602875E-001,-2.895795507356525E-003,5.191485211253166E-002,-9.166612029075623E-001,-3.656483590602875E-001,
9.159000000000000E+008,-5.507900845259428E-003,4.588441550731659E-002,-9.380904436111450E-001,-3.408496081829071E-001,-5.507900845259428E-003,4.588441550731659E-002,-9.380904436111450E-001,-3.408496081829071E-001,
9.242666666666668E+008,-1.205805037170649E-002,4.574896767735481E-002,-9.296091794967651E-001,-3.189925253391266E-001,-1.205805037170649E-002,4.574896767735481E-002,-9.296091794967651E-001,-3.189925253391266E-001,
9.326333333333334E+008,-1.696916855871677E-002,4.773128777742386E-002,-9.459505081176758E-001,-3.048757016658783E-001,-1.696916855871677E-002,4.773128777742386E-002,-9.459505081176758E-001,-3.048757016658783E-001,
9.410000000000000E+008,-2.100670896470547E-002,5.190631002187729E-002,-9.560209512710571E-001,-2.690058052539825E-001,-2.100670896470547E-002,5.190631002187729E-002,-9.560209512710571E-001,-2.690058052539825E-001,
9.493666666666668E+008,-2.261062525212765E-002,6.111044809222221E-002,-9.609112143516541E-001,-2.389418333768845E-001,-2.261062525212765E-002,6.111044809222221E-002,-9.609112143516541E-001,-2.389418333768845E-001,
9.577333333333334E+008,-1.916221901774406E-002,7.097526639699936E-002,-9.669197797775269E-001,-2.251068353652954E-001,-1.916221901774406E-002,7.097526639699936E-002,-9.669197797775269E-001,-2.251068353652954E-001,
9.661000000000000E+008,-1.067318767309189E-002,7.777103781700134E-002,-9.677203893661499E-001,-1.831740885972977E-001,-1.067318767309189E-002,7.777103781700134E-002,-9.677203893661499E-001,-1.831740885972977E-001,
9.744666666666668E+008,-1.563039550092071E-004,7.833836972713471E-002,-9.660626649856567E-001,-1.735376417636871E-001,-1.563039550092071E-004,7.833836972713471E-002,-9.660626649856567E-001,-1.735376417636871E-001,
9.828333333333334E+008,8.897524327039719E-003,7.939210534095764E-002,-9.819113016128540E-001,-1.536394655704498E-001,8.897524327039719E-003,7.939210534095764E-002,-9.819113016128540E-001,-1.536394655704498E-001,
9.912000000000000E+008,1.923316344618797E-002,7.297604531049728E-002,-9.792214035987854E-001,-1.314996331930161E-001,1.923316344618797E-002,7.297604531049728E-002,-9.792214035987854E-001,-1.314996331930161E-001,
9.995666666666668E+008,2.291473187506199E-002,6.496752798557282E-002,-9.914374947547913E-001,-9.451095759868622E-002,2.291473187506199E-002,6.496752798557282E-002,-9.914374947547913E-001,-9.451095759868622E-002,
1.007933333333333E+009,2.638176456093788E-002,5.519345775246620E-002,-1.005445003509522E+000,-7.782201468944550E-002,2.638176456093788E-002,5.519345775246620E-002,-1.005445003509522E+000,-7.782201468944550E-002,
1.016300000000000E+009,2.041026204824448E-002,4.881866276264191E-002,-9.920094609260559E-001,-5.099560692906380E-002,2.041026204824448E-002,4.881866276264191E-002,-9.920094609260559E-001,-5.099560692906380E-002,
1.024666666666667E+009,1.282948162406683E-002,4.466696456074715E-002,-9.881058931350708E-001,-2.504525333642960E-002,1.282948162406683E-002,4.466696456074715E-002,-9.881058931350708E-001,-2.504525333642960E-002,
1.033033333333333E+009,7.893174886703491E-003,4.909975081682205E-002,-9.952115416526794E-001,1.044292701408267E-003,7.893174886703491E-003,4.909975081682205E-002,-9.952115416526794E-001,1.044292701408267E-003,
1.041400000000000E+009,1.339148730039597E-003,5.399601906538010E-002,-9.949963688850403E-001,2.222001552581787E-002,1.339148730039597E-003,5.399601906538010E-002,-9.949963688850403E-001,2.222001552581787E-002,
1.049766666666667E+009,4.425084684044123E-003,6.351873278617859E-002,-9.811804890632629E-001,5.810434743762016E-002,4.425084684044123E-003,6.351873278617859E-002,-9.811804890632629E-001,5.810434743762016E-002,
1.058133333333333E+009,8.618337102234364E-003,7.276119291782379E-002,-9.827428460121155E-001,8.030795305967331E-002,8.618337102234364E-003,7.276119291782379E-002,-9.827428460121155E-001,8.030795305967331E-002,
1.066500000000000E+009,1.974428072571755E-002,7.718296349048615E-002,-9.975207448005676E-001,1.145408824086189E-001,1.974428072571755E-002,7.718296349048615E-002,-9.975207448005676E-001,1.145408824086189E-001,
1.074866666666667E+009,3.314510360360146E-002,7.607815414667130E-002,-9.918323159217835E-001,1.352151781320572E-001,3.314510360360146E-002,7.607815414667130E-002,-9.918323159217835E-001,1.352151781320572E-001,
1.083233333333334E+009,4.168525710701942E-002,6.807514280080795E-002,-9.752156138420105E-001,1.564067751169205E-001,4.168525710701942E-002,6.807514280080795E-002,-9.752156138420105E-001,1.564067751169205E-001,
1.091600000000000E+009,4.797719046473503E-002,5.735362321138382E-002,-9.575704932212830E-001,1.756948381662369E-001,4.797719046473503E-002,5.735362321138382E-002,-9.575704932212830E-001,1.756948381662369E-001,
1.099966666666667E+009,4.697332158684731E-002,4.365655407309532E-002,-9.530993103981018E-001,2.137403786182404E-001,4.697332158684731E-002,4.365655407309532E-002,-9.530993103981018E-001,2.137403786182404E-001,
1.108333333333334E+009,3.876443207263947E-002,3.529516980051994E-002,-9.529531598091126E-001,2.222382277250290E-001,3.876443207263947E-002,3.529516980051994E-002,-9.529531598091126E-001,2.222382277250290E-001,
1.116700000000000E+009,2.821451053023338E-002,3.157286345958710E-002,-9.459567666053772E-001,2.558155953884125E-001,2.821451053023338E-002,3.157286345958710E-002,-9.459567666053772E-001,2.558155953884125E-001,
1.125066666666667E+009,1.706439070403576E-002,3.584870323538780E-002,-9.464682936668396E-001,2.723562121391296E-001,1.706439070403576E-002,3.584870323538780E-002,-9.464682936668396E-001,2.723562121391296E-001,
1.133433333333334E+009,9.278237819671631E-003,4.546220600605011E-002,-9.439443349838257E-001,3.172025382518768E-001,9.278237819671631E-003,4.546220600605011E-002,-9.439443349838257E-001,3.172025382518768E-001,
1.141800000000000E+009,8.033304475247860E-003,5.887681245803833E-002,-9.216041564941406E-001,3.316707015037537E-001,8.033304475247860E-003,5.887681245803833E-002,-9.216041564941406E-001,3.316707015037537E-001,
1.150166666666667E+009,1.711658760905266E-002,7.333961874246597E-002,-9.126247763633728E-001,3.327370882034302E-001,1.711658760905266E-002,7.333961874246597E-002,-9.126247763633728E-001,3.327370882034302E-001,
1.158533333333334E+009,3.310329467058182E-002,8.061826229095459E-002,-9.050464034080505E-001,3.730480670928955E-001,3.310329467058182E-002,8.061826229095459E-002,-9.050464034080505E-001,3.730480670928955E-001,
1.166900000000000E+009,5.229584872722626E-002,8.075340837240219E-002,-8.888420462608337E-001,3.934617042541504E-001,5.229584872722626E-002,8.075340837240219E-002,-8.888420462608337E-001,3.934617042541504E-001,
1.175266666666667E+009,6.817611306905747E-002,7.013935595750809E-002,-8.832938075065613E-001,4.229693710803986E-001,6.817611306905747E-002,7.013935595750809E-002,-8.832938075065613E-001,4.229693710803986E-001,
1.183633333333334E+009,7.998347282409668E-002,5.540382862091065E-002,-8.809912204742432E-001,4.346218407154083E-001,7.998347282409668E-002,5.540382862091065E-002,-8.809912204742432E-001,4.346218407154083E-001,
1.192000000000000E+009,7.984483987092972E-002,3.659973666071892E-002,-8.687841892242432E-001,4.574236571788788E-001,7.984483987092972E-002,3.659973666071892E-002,-8.687841892242432E-001,4.574236571788788E-001,
1.200366666666667E+009,7.016140222549439E-002,1.980302855372429E-002,-8.560988903045654E-001,4.789713025093079E-001,7.016140222549439E-002,1.980302855372429E-002,-8.560988903045654E-001,4.789713025093079E-001,
1.208733333333334E+009,5.501617491245270E-002,1.063783280551434E-002,-8.492860198020935E-001,5.211542844772339E-001,5.501617491245270E-002,1.063783280551434E-002,-8.492860198020935E-001,5.211542844772339E-001,
1.217100000000000E+009,3.882997110486031E-002,1.151346415281296E-002,-8.452040553092957E-001,5.306589603424072E-001,3.882997110486031E-002,1.151346415281296E-002,-8.452040553092957E-001,5.306589603424072E-001,
1.225466666666667E+009,2.625206485390663E-002,2.217160351574421E-002,-8.131079673767090E-001,5.550649166107178E-001,2.625206485390663E-002,2.217160351574421E-002,-8.131079673767090E-001,5.550649166107178E-001,
1.233833333333334E+009,2.175788395106792E-002,3.861262649297714E-002,-8.082267642021179E-001,5.667327046394348E-001,2.175788395106792E-002,3.861262649297714E-002,-8.082267642021179E-001,5.667327046394348E-001,
1.242200000000000E+009,3.015580587089062E-002,5.307654291391373E-002,-7.830097079277039E-001,6.006931066513062E-001,3.015580587089062E-002,5.307654291391373E-002,-7.830097079277039E-001,6.006931066513062E-001,
1.250566666666667E+009,4.342957586050034E-002,6.334859132766724E-002,-7.614091634750366E-001,6.061682701110840E-001,4.342957586050034E-002,6.334859132766724E-002,-7.614091634750366E-001,6.061682701110840E-001,
1.258933333333334E+009,6.421101093292236E-002,6.369100511074066E-002,-7.560154795646668E-001,6.283081173896790E-001,6.421101093292236E-002,6.369100511074066E-002,-7.560154795646668E-001,6.283081173896790E-001,
1.267300000000000E+009,8.386136591434479E-002,5.313415452837944E-002,-7.367324233055115E-001,6.427996754646301E-001,8.386136591434479E-002,5.313415452837944E-002,-7.367324233055115E-001,6.427996754646301E-001,
1.275666666666667E+009,9.305865317583084E-002,3.514805808663368E-002,-7.243360877037048E-001,6.505997180938721E-001,9.305865317583084E-002,3.514805808663368E-002,-7.243360877037048E-001,6.505997180938721E-001,
1.284033333333334E+009,9.517473727464676E-002,1.402936130762100E-002,-7.085004448890686E-001,6.928052902221680E-001,9.517473727464676E-002,1.402936130762100E-002,-7.085004448890686E-001,6.928052902221680E-001,
1.292400000000000E+009,8.458778262138367E-002,-4.853934515267611E-003,-6.960554122924805E-001,6.961436867713928E-001,8.458778262138367E-002,-4.853934515267611E-003,-6.960554122924805E-001,6.961436867713928E-001,
1.300766666666667E+009,6.482190638780594E-002,-1.362019497901201E-002,-6.737153530120850E-001,7.202254533767700E-001,6.482190638780594E-002,-1.362019497901201E-002,-6.737153530120850E-001,7.202254533767700E-001,
1.309133333333334E+009,4.420309513807297E-002,-1.242694444954395E-002,-6.491851210594177E-001,7.343642711639404E-001,4.420309513807297E-002,-1.242694444954395E-002,-6.491851210594177E-001,7.343642711639404E-001,
1.317500000000000E+009,2.938781864941120E-002,-7.305505569092929E-004,-6.368039846420288E-001,7.651731371879578E-001,2.938781864941120E-002,-7.305505569092929E-004,-6.368039846420288E-001,7.651731371879578E-001,
1.325866666666667E+009,2.453474700450897E-002,1.613329909741879E-002,-6.173120141029358E-001,7.803714871406555E-001,2.453474700450897E-002,1.613329909741879E-002,-6.173120141029358E-001,7.803714871406555E-001,
1.334233333333334E+009,3.265957906842232E-002,3.368824347853661E-002,-5.989714860916138E-001,7.859001159667969E-001,3.265957906842232E-002,3.368824347853661E-002,-5.989714860916138E-001,7.859001159667969E-001,
1.342600000000000E+009,4.842637851834297E-002,4.269886389374733E-002,-5.813084840774536E-001,8.030147552490234E-001,4.842637851834297E-002,4.269886389374733E-002,-5.813084840774536E-001,8.030147552490234E-001,
1.350966666666667E+009,6.893613934516907E-002,3.995796665549278E-002,-5.554190278053284E-001,8.154196143150330E-001,6.893613934516907E-002,3.995796665549278E-002,-5.554190278053284E-001,8.154196143150330E-001,
1.359333333333334E+009,8.425181359052658E-002,2.639875188469887E-002,-5.423396229743958E-001,8.151854872703552E-001,8.425181359052658E-002,2.639875188469887E-002,-5.423396229743958E-001,8.151854872703552E-001,
1.367700000000000E+009,9.049186855554581E-002,6.618203595280647E-003,-5.083842277526856E-001,8.343288302421570E-001,9.049186855554581E-002,6.618203595280647E-003,-5.083842277526856E-001,8.343288302421570E-001,
1.376066666666667E+009,8.680062741041184E-002,-1.565100252628326E-002,-4.932076334953308E-001,8.434268832206726E-001,8.680062741041184E-002,-1.565100252628326E-002,-4.932076334953308E-001,8.434268832206726E-001,
1.384433333333334E+009,6.955709308385849E-002,-3.117353655397892E-002,-4.778890311717987E-001,8.743394017219544E-001,6.955709308385849E-002,-3.117353655397892E-002,-4.778890311717987E-001,8.743394017219544E-001,
1.392800000000000E+009,4.847478121519089E-002,-3.360293433070183E-002,-4.574960768222809E-001,8.820782303810120E-001,4.847478121519089E-002,-3.360293433070183E-002,-4.574960768222809E-001,8.820782303810120E-001,
1.401166666666667E+009,2.733510360121727E-002,-2.636810019612312E-002,-4.300650358200073E-001,8.896654844284058E-001,2.733510360121727E-002,-2.636810019612312E-002,-4.300650358200073E-001,8.896654844284058E-001,
1.409533333333334E+009,1.337919570505619E-002,-8.834484033286572E-003,-4.012428224086762E-001,9.044047594070435E-001,1.337919570505619E-002,-8.834484033286572E-003,-4.012428224086762E-001,9.044047594070435E-001,
1.417900000000000E+009,1.366421207785606E-002,1.442692149430513E-002,-3.819386363029480E-001,8.999912142753601E-001,1.366421207785606E-002,1.442692149430513E-002,-3.819386363029480E-001,8.999912142753601E-001,
1.426266666666667E+009,2.407667040824890E-002,3.144219517707825E-002,-3.452810049057007E-001,9.269611239433289E-001,2.407667040824890E-002,3.144219517707825E-002,-3.452810049057007E-001,9.269611239433289E-001,
1.434633333333334E+009,4.460727050900459E-002,3.981679677963257E-002,-3.354749977588654E-001,9.211568236351013E-001,4.460727050900459E-002,3.981679677963257E-002,-3.354749977588654E-001,9.211568236351013E-001,
1.443000000000000E+009,6.532577425241470E-002,3.703297674655914E-002,-3.109596073627472E-001,9.294877052307129E-001,6.532577425241470E-002,3.703297674655914E-002,-3.109596073627472E-001,9.294877052307129E-001,
1.451366666666667E+009,8.175802230834961E-002,2.129521593451500E-002,-2.847682535648346E-001,9.302454590797424E-001,8.175802230834961E-002,2.129521593451500E-002,-2.847682535648346E-001,9.302454590797424E-001,
1.459733333333334E+009,8.874805271625519E-002,9.727941360324621E-004,-2.591028809547424E-001,9.567447900772095E-001,8.874805271625519E-002,9.727941360324621E-004,-2.591028809547424E-001,9.567447900772095E-001,
