% Version 1.00
%
%freq[Hz],re:Trc1_S11,im:Trc1_S11,re:Trc2_S21,im:Trc2_S21,re:Trc3_S11,im:Trc3_S11,re:Trc4_S21,im:Trc4_S21,
6.900000000000000E+008,-4.201303794980049E-002,3.137733787298203E-002,-4.979225099086762E-001,-8.466415405273438E-001,-4.201303794980049E-002,3.137733787298203E-002,-4.979225099086762E-001,-8.466415405273438E-001,
6.983666666666666E+008,-3.426330909132958E-002,3.188197314739227E-002,-5.221056342124939E-001,-8.367080688476563E-001,-3.426330909132958E-002,3.188197314739227E-002,-5.221056342124939E-001,-8.367080688476563E-001,
7.067333333333334E+008,-2.841598726809025E-002,2.744938805699348E-002,-5.460562705993652E-001,-8.111351728439331E-001,-2.841598726809025E-002,2.744938805699348E-002,-5.460562705993652E-001,-8.111351728439331E-001,
7.151000000000000E+008,-2.832298539578915E-002,1.974535174667835E-002,-5.814304947853088E-001,-8.086832165718079E-001,-2.832298539578915E-002,1.974535174667835E-002,-5.814304947853088E-001,-8.086832165718079E-001,
7.234666666666666E+008,-3.021766431629658E-002,1.439051888883114E-002,-5.939436554908752E-001,-7.931264042854309E-001,-3.021766431629658E-002,1.439051888883114E-002,-5.939436554908752E-001,-7.931264042854309E-001,
7.318333333333334E+008,-3.763952851295471E-002,1.204529590904713E-002,-6.117656230926514E-001,-7.765489816665649E-001,-3.763952851295471E-002,1.204529590904713E-002,-6.117656230926514E-001,-7.765489816665649E-001,
7.402000000000000E+008,-4.392896965146065E-002,1.385281700640917E-002,-6.221325993537903E-001,-7.515914440155029E-001,-4.392896965146065E-002,1.385281700640917E-002,-6.221325993537903E-001,-7.515914440155029E-001,
7.485666666666666E+008,-4.912769049406052E-002,2.058487199246883E-002,-6.520974040031433E-001,-7.381113171577454E-001,-4.912769049406052E-002,2.058487199246883E-002,-6.520974040031433E-001,-7.381113171577454E-001,
7.569333333333334E+008,-5.288017913699150E-002,3.013809025287628E-002,-6.702976822853088E-001,-7.250404953956604E-001,-5.288017913699150E-002,3.013809025287628E-002,-6.702976822853088E-001,-7.250404953956604E-001,
7.653000000000000E+008,-4.756411537528038E-002,3.895241394639015E-002,-6.783937811851502E-001,-7.061199545860291E-001,-4.756411537528038E-002,3.895241394639015E-002,-6.783937811851502E-001,-7.061199545860291E-001,
7.736666666666666E+008,-4.124857112765312E-002,4.552846029400826E-002,-6.897051334381104E-001,-7.017787694931030E-001,-4.124857112765312E-002,4.552846029400826E-002,-6.897051334381104E-001,-7.017787694931030E-001,
7.820333333333334E+008,-3.271547332406044E-002,4.944505169987679E-002,-7.237527370452881E-001,-6.745253801345825E-001,-3.271547332406044E-002,4.944505169987679E-002,-7.237527370452881E-001,-6.745253801345825E-001,
7.904000000000000E+008,-2.291612513363361E-002,4.840511456131935E-002,-7.325856685638428E-001,-6.550083756446838E-001,-2.291612513363361E-002,4.840511456131935E-002,-7.325856685638428E-001,-6.550083756446838E-001,
7.987666666666666E+008,-1.893323473632336E-002,4.315961524844170E-002,-7.383316159248352E-001,-6.403468847274780E-001,-1.893323473632336E-002,4.315961524844170E-002,-7.383316159248352E-001,-6.403468847274780E-001,
8.071333333333334E+008,-1.693826168775559E-002,3.667510300874710E-002,-7.646155357360840E-001,-6.081352829933167E-001,-1.693826168775559E-002,3.667510300874710E-002,-7.646155357360840E-001,-6.081352829933167E-001,
8.155000000000000E+008,-2.013979852199554E-002,2.974958345293999E-002,-7.913950681686401E-001,-5.972339510917664E-001,-2.013979852199554E-002,2.974958345293999E-002,-7.913950681686401E-001,-5.972339510917664E-001,
8.238666666666666E+008,-2.675907127559185E-002,2.762839198112488E-002,-7.972240447998047E-001,-5.737639665603638E-001,-2.675907127559185E-002,2.762839198112488E-002,-7.972240447998047E-001,-5.737639665603638E-001,
8.322333333333334E+008,-3.253712505102158E-002,2.883896231651306E-002,-8.070418238639832E-001,-5.557765364646912E-001,-3.253712505102158E-002,2.883896231651306E-002,-8.070418238639832E-001,-5.557765364646912E-001,
8.406000000000000E+008,-3.716320544481278E-002,3.187545388936997E-002,-8.185148835182190E-001,-5.333812832832336E-001,-3.716320544481278E-002,3.187545388936997E-002,-8.185148835182190E-001,-5.333812832832336E-001,
8.489666666666668E+008,-3.878344595432282E-002,4.274104163050652E-002,-8.304160237312317E-001,-5.046438574790955E-001,-3.878344595432282E-002,4.274104163050652E-002,-8.304160237312317E-001,-5.046438574790955E-001,
8.573333333333334E+008,-3.681419044733048E-002,5.034507811069489E-002,-8.336004614830017E-001,-4.740076959133148E-001,-3.681419044733048E-002,5.034507811069489E-002,-8.336004614830017E-001,-4.740076959133148E-001,
8.657000000000000E+008,-3.152142092585564E-002,5.794832855463028E-002,-8.611555695533752E-001,-4.787443876266480E-001,-3.152142092585564E-002,5.794832855463028E-002,-8.611555695533752E-001,-4.787443876266480E-001,
8.740666666666668E+008,-2.255819737911224E-002,6.290014088153839E-002,-8.663754463195801E-001,-4.539759457111359E-001,-2.255819737911224E-002,6.290014088153839E-002,-8.663754463195801E-001,-4.539759457111359E-001,
8.824333333333334E+008,-1.438599079847336E-002,6.443775445222855E-002,-8.845349550247192E-001,-4.302538931369782E-001,-1.438599079847336E-002,6.443775445222855E-002,-8.845349550247192E-001,-4.302538931369782E-001,
8.908000000000000E+008,-6.438408978283405E-003,6.098968535661697E-002,-8.988219499588013E-001,-4.122458100318909E-001,-6.438408978283405E-003,6.098968535661697E-002,-8.988219499588013E-001,-4.122458100318909E-001,
8.991666666666668E+008,-1.190995099022985E-003,5.510436370968819E-002,-8.972231745719910E-001,-3.851763904094696E-001,-1.190995099022985E-003,5.510436370968819E-002,-8.972231745719910E-001,-3.851763904094696E-001,
9.075333333333334E+008,-9.982142364606261E-004,4.735415056347847E-002,-9.122918844223023E-001,-3.604569733142853E-001,-9.982142364606261E-004,4.735415056347847E-002,-9.122918844223023E-001,-3.604569733142853E-001,
9.159000000000000E+008,-3.777174511924386E-003,4.160780087113380E-002,-9.333465099334717E-001,-3.355894088745117E-001,-3.777174511924386E-003,4.160780087113380E-002,-9.333465099334717E-001,-3.355894088745117E-001,
9.242666666666668E+008,-1.064685173332691E-002,4.148741438984871E-002,-9.248782992362976E-001,-3.139059841632843E-001,-1.064685173332691E-002,4.148741438984871E-002,-9.248782992362976E-001,-3.139059841632843E-001,
9.326333333333334E+008,-1.576439477503300E-002,4.334765672683716E-002,-9.411495923995972E-001,-2.996302843093872E-001,-1.576439477503300E-002,4.334765672683716E-002,-9.411495923995972E-001,-2.996302843093872E-001,
9.410000000000000E+008,-1.997030712664127E-002,4.736876860260963E-002,-9.513608217239380E-001,-2.638432979583740E-001,-1.997030712664127E-002,4.736876860260963E-002,-9.513608217239380E-001,-2.638432979583740E-001,
9.493666666666668E+008,-2.154074795544148E-002,5.637120455503464E-002,-9.555929303169251E-001,-2.335648685693741E-001,-2.154074795544148E-002,5.637120455503464E-002,-9.555929303169251E-001,-2.335648685693741E-001,
9.577333333333334E+008,-1.801925525069237E-002,6.585865467786789E-002,-9.621660113334656E-001,-2.197034209966660E-001,-1.801925525069237E-002,6.585865467786789E-002,-9.621660113334656E-001,-2.197034209966660E-001,
9.661000000000000E+008,-9.260850958526135E-003,7.248029857873917E-002,-9.626509547233582E-001,-1.782964468002319E-001,-9.260850958526135E-003,7.248029857873917E-002,-9.626509547233582E-001,-1.782964468002319E-001,
9.744666666666668E+008,1.372148515656591E-003,7.294598966836929E-002,-9.601841568946838E-001,-1.687343716621399E-001,1.372148515656591E-003,7.294598966836929E-002,-9.601841568946838E-001,-1.687343716621399E-001,
9.828333333333334E+008,1.062418054789305E-002,7.396880537271500E-002,-9.763997197151184E-001,-1.487256884574890E-001,1.062418054789305E-002,7.396880537271500E-002,-9.763997197151184E-001,-1.487256884574890E-001,
9.912000000000000E+008,2.106207050383091E-002,6.763559579849243E-002,-9.733856320381165E-001,-1.268096715211868E-001,2.106207050383091E-002,6.763559579849243E-002,-9.733856320381165E-001,-1.268096715211868E-001,
9.995666666666668E+008,2.462635748088360E-002,5.991437658667564E-002,-9.863355755805969E-001,-8.969566971063614E-002,2.462635748088360E-002,5.991437658667564E-002,-9.863355755805969E-001,-8.969566971063614E-002,
1.007933333333333E+009,2.790799550712109E-002,5.028131231665611E-002,-9.998555779457092E-001,-7.289473712444305E-002,2.790799550712109E-002,5.028131231665611E-002,-9.998555779457092E-001,-7.289473712444305E-002,
1.016300000000000E+009,2.150270156562328E-002,4.407808557152748E-002,-9.863339066505432E-001,-4.668176174163818E-002,2.150270156562328E-002,4.407808557152748E-002,-9.863339066505432E-001,-4.668176174163818E-002,
1.024666666666667E+009,1.358169596642256E-002,4.005226120352745E-002,-9.821407198905945E-001,-2.053140476346016E-002,1.358169596642256E-002,4.005226120352745E-002,-9.821407198905945E-001,-2.053140476346016E-002,
1.033033333333333E+009,8.244262076914311E-003,4.450520500540733E-002,-9.893663525581360E-001,5.650702863931656E-003,8.244262076914311E-003,4.450520500540733E-002,-9.893663525581360E-001,5.650702863931656E-003,
1.041400000000000E+009,1.504838815890253E-003,4.937378689646721E-002,-9.889236092567444E-001,2.635879069566727E-002,1.504838815890253E-003,4.937378689646721E-002,-9.889236092567444E-001,2.635879069566727E-002,
1.049766666666667E+009,4.561134148389101E-003,5.874764174222946E-002,-9.743307232856751E-001,6.244283914566040E-002,4.561134148389101E-003,5.874764174222946E-002,-9.743307232856751E-001,6.244283914566040E-002,
1.058133333333333E+009,8.855216205120087E-003,6.771627068519592E-002,-9.760956168174744E-001,8.438822627067566E-002,8.855216205120087E-003,6.771627068519592E-002,-9.760956168174744E-001,8.438822627067566E-002,
1.066500000000000E+009,2.023268118500710E-002,7.181736081838608E-002,-9.904280900955200E-001,1.178098022937775E-001,2.023268118500710E-002,7.181736081838608E-002,-9.904280900955200E-001,1.178098022937775E-001,
1.074866666666667E+009,3.402172029018402E-002,7.038082927465439E-002,-9.855893254280090E-001,1.387775242328644E-001,3.402172029018402E-002,7.038082927465439E-002,-9.855893254280090E-001,1.387775242328644E-001,
1.083233333333334E+009,4.284109175205231E-002,6.230247020721436E-002,-9.681520462036133E-001,1.593719720840454E-001,4.284109175205231E-002,6.230247020721436E-002,-9.681520462036133E-001,1.593719720840454E-001,
1.091600000000000E+009,4.944026842713356E-002,5.171956866979599E-002,-9.509294033050537E-001,1.783637851476669E-001,4.944026842713356E-002,5.171956866979599E-002,-9.509294033050537E-001,1.783637851476669E-001,
1.099966666666667E+009,4.840388149023056E-002,3.828790038824081E-002,-9.466942548751831E-001,2.156684249639511E-001,4.840388149023056E-002,3.828790038824081E-002,-9.466942548751831E-001,2.156684249639511E-001,
1.108333333333334E+009,4.020884260535240E-002,3.024637885391712E-002,-9.462178349494934E-001,2.250067740678787E-001,4.020884260535240E-002,3.024637885391712E-002,-9.462178349494934E-001,2.250067740678787E-001,
1.116700000000000E+009,2.946529537439346E-002,2.692649327218533E-002,-9.387920498847961E-001,2.581862509250641E-001,2.946529537439346E-002,2.692649327218533E-002,-9.387920498847961E-001,2.581862509250641E-001,
1.125066666666667E+009,1.799738220870495E-002,3.134999051690102E-002,-9.399918913841248E-001,2.747958600521088E-001,1.799738220870495E-002,3.134999051690102E-002,-9.399918913841248E-001,2.747958600521088E-001,
1.133433333333334E+009,9.960246272385120E-003,4.095771163702011E-002,-9.369943737983704E-001,3.189470469951630E-001,9.960246272385120E-003,4.095771163702011E-002,-9.369943737983704E-001,3.189470469951630E-001,
1.141800000000000E+009,8.507939055562019E-003,5.425804108381271E-002,-9.140246510505676E-001,3.335252702236176E-001,8.507939055562019E-003,5.425804108381271E-002,-9.140246510505676E-001,3.335252702236176E-001,
1.150166666666667E+009,1.738048158586025E-002,6.836520880460739E-002,-9.051925539970398E-001,3.348205685615540E-001,1.738048158586025E-002,6.836520880460739E-002,-9.051925539970398E-001,3.348205685615540E-001,
1.158533333333334E+009,3.320097550749779E-002,7.505469769239426E-002,-8.978208899497986E-001,3.741604685783386E-001,3.320097550749779E-002,7.505469769239426E-002,-8.978208899497986E-001,3.741604685783386E-001,
1.166900000000000E+009,5.239241570234299E-002,7.468917965888977E-002,-8.812610507011414E-001,3.944573700428009E-001,5.239241570234299E-002,7.468917965888977E-002,-8.812610507011414E-001,3.944573700428009E-001,
1.175266666666667E+009,6.826504319906235E-002,6.385143846273422E-002,-8.758571147918701E-001,4.233218133449554E-001,6.826504319906235E-002,6.385143846273422E-002,-8.758571147918701E-001,4.233218133449554E-001,
1.183633333333334E+009,8.022640645503998E-002,4.914478957653046E-002,-8.740594387054443E-001,4.343841373920441E-001,8.022640645503998E-002,4.914478957653046E-002,-8.740594387054443E-001,4.343841373920441E-001,
1.192000000000000E+009,8.030301332473755E-002,3.041074983775616E-002,-8.620803356170654E-001,4.571526050567627E-001,8.030301332473755E-002,3.041074983775616E-002,-8.620803356170654E-001,4.571526050567627E-001,
1.200366666666667E+009,7.076034694910049E-002,1.405911892652512E-002,-8.497056365013123E-001,4.792847335338593E-001,7.076034694910049E-002,1.405911892652512E-002,-8.497056365013123E-001,4.792847335338593E-001,
1.208733333333334E+009,5.564189702272415E-002,5.297769792377949E-003,-8.426542282104492E-001,5.206444263458252E-001,5.564189702272415E-002,5.297769792377949E-003,-8.426542282104492E-001,5.206444263458252E-001,
1.217100000000000E+009,3.945999592542648E-002,6.838166620582342E-003,-8.388172388076782E-001,5.303764939308167E-001,3.945999592542648E-002,6.838166620582342E-003,-8.388172388076782E-001,5.303764939308167E-001,
1.225466666666667E+009,2.694057859480381E-002,1.774444989860058E-002,-8.059585690498352E-001,5.552994608879089E-001,2.694057859480381E-002,1.774444989860058E-002,-8.059585690498352E-001,5.552994608879089E-001,
1.233833333333334E+009,2.245754562318325E-002,3.428103774785996E-002,-8.010784387588501E-001,5.662192106246948E-001,2.245754562318325E-002,3.428103774785996E-002,-8.010784387588501E-001,5.662192106246948E-001,
1.242200000000000E+009,3.061733581125736E-002,4.841619357466698E-002,-7.757372856140137E-001,5.998957753181458E-001,3.061733581125736E-002,4.841619357466698E-002,-7.757372856140137E-001,5.998957753181458E-001,
1.250566666666667E+009,4.359040409326553E-002,5.807859823107719E-002,-7.541297674179077E-001,6.060829162597656E-001,4.359040409326553E-002,5.807859823107719E-002,-7.541297674179077E-001,6.060829162597656E-001,
1.258933333333334E+009,6.403579562902451E-002,5.780033767223358E-002,-7.486498355865479E-001,6.267712712287903E-001,6.403579562902451E-002,5.780033767223358E-002,-7.486498355865479E-001,6.267712712287903E-001,
1.267300000000000E+009,8.344429731369019E-002,4.655640572309494E-002,-7.296804785728455E-001,6.406978964805603E-001,8.344429731369019E-002,4.655640572309494E-002,-7.296804785728455E-001,6.406978964805603E-001,
1.275666666666667E+009,9.244536608457565E-002,2.828734181821346E-002,-7.172867655754089E-001,6.484917998313904E-001,9.244536608457565E-002,2.828734181821346E-002,-7.172867655754089E-001,6.484917998313904E-001,
1.284033333333334E+009,9.446092694997788E-002,7.164788432419300E-003,-7.012522816658020E-001,6.906478404998779E-001,9.446092694997788E-002,7.164788432419300E-003,-7.012522816658020E-001,6.906478404998779E-001,
1.292400000000000E+009,8.405116200447083E-002,-1.140176597982645E-002,-6.895515918731690E-001,6.937655806541443E-001,8.405116200447083E-002,-1.140176597982645E-002,-6.895515918731690E-001,6.937655806541443E-001,
1.300766666666667E+009,6.462452560663223E-002,-1.975801028311253E-002,-6.675010323524475E-001,7.181177139282227E-001,6.462452560663223E-002,-1.975801028311253E-002,-6.675010323524475E-001,7.181177139282227E-001,
1.309133333333334E+009,4.407996684312820E-002,-1.822054944932461E-002,-6.425363421440125E-001,7.321056127548218E-001,4.407996684312820E-002,-1.822054944932461E-002,-6.425363421440125E-001,7.321056127548218E-001,
1.317500000000000E+009,2.947544120252132E-002,-6.019343622028828E-003,-6.301499009132385E-001,7.633613348007202E-001,2.947544120252132E-002,-6.019343622028828E-003,-6.301499009132385E-001,7.633613348007202E-001,
1.325866666666667E+009,2.459361962974072E-002,1.096266042441130E-002,-6.107686758041382E-001,7.778261899948120E-001,2.459361962974072E-002,1.096266042441130E-002,-6.107686758041382E-001,7.778261899948120E-001,
1.334233333333334E+009,3.242887184023857E-002,2.858296781778336E-002,-5.917159914970398E-001,7.834894657135010E-001,3.242887184023857E-002,2.858296781778336E-002,-5.917159914970398E-001,7.834894657135010E-001,
1.342600000000000E+009,4.775925353169441E-002,3.741588816046715E-002,-5.739557147026062E-001,8.003190755844116E-001,4.775925353169441E-002,3.741588816046715E-002,-5.739557147026062E-001,8.003190755844116E-001,
1.350966666666667E+009,6.768678873777390E-002,3.422003984451294E-002,-5.487573146820068E-001,8.117114901542664E-001,6.768678873777390E-002,3.422003984451294E-002,-5.487573146820068E-001,8.117114901542664E-001,
1.359333333333334E+009,8.245036005973816E-002,2.040316350758076E-002,-5.353065729141235E-001,8.112974166870117E-001,8.245036005973816E-002,2.040316350758076E-002,-5.353065729141235E-001,8.112974166870117E-001,
1.367700000000000E+009,8.833919465541840E-002,2.969956258311868E-004,-5.019610524177551E-001,8.306856751441956E-001,8.833919465541840E-002,2.969956258311868E-004,-5.019610524177551E-001,8.306856751441956E-001,
1.376066666666667E+009,8.453303575515747E-002,-2.189455181360245E-002,-4.868547022342682E-001,8.394147157669067E-001,8.453303575515747E-002,-2.189455181360245E-002,-4.868547022342682E-001,8.394147157669067E-001,
1.384433333333334E+009,6.768122315406799E-002,-3.715164214372635E-002,-4.724633693695068E-001,8.708344101905823E-001,6.768122315406799E-002,-3.715164214372635E-002,-4.724633693695068E-001,8.708344101905823E-001,
1.392800000000000E+009,4.704426601529121E-002,-3.938477858901024E-002,-4.507285654544830E-001,8.784044384956360E-001,4.704426601529121E-002,-3.938477858901024E-002,-4.507285654544830E-001,8.784044384956360E-001,
1.401166666666667E+009,2.674702741205692E-002,-3.168840706348419E-002,-4.247687160968781E-001,8.860964179039002E-001,2.674702741205692E-002,-3.168840706348419E-002,-4.247687160968781E-001,8.860964179039002E-001,
1.409533333333334E+009,1.330211386084557E-002,-1.402354147285223E-002,-3.946783840656281E-001,9.002933502197266E-001,1.330211386084557E-002,-1.402354147285223E-002,-3.946783840656281E-001,9.002933502197266E-001,
1.417900000000000E+009,1.412753202021122E-002,9.319826029241085E-003,-3.754383325576782E-001,8.961340785026550E-001,1.412753202021122E-002,9.319826029241085E-003,-3.754383325576782E-001,8.961340785026550E-001,
1.426266666666667E+009,2.453655563294888E-002,2.634301222860813E-002,-3.396093249320984E-001,9.229246377944946E-001,2.453655563294888E-002,2.634301222860813E-002,-3.396093249320984E-001,9.229246377944946E-001,
1.434633333333334E+009,4.475480690598488E-002,3.440213203430176E-002,-3.296246528625488E-001,9.163540601730347E-001,4.475480690598488E-002,3.440213203430176E-002,-3.296246528625488E-001,9.163540601730347E-001,
1.443000000000000E+009,6.480287760496140E-002,3.137185052037239E-002,-3.055383265018463E-001,9.246799945831299E-001,6.480287760496140E-002,3.137185052037239E-002,-3.055383265018463E-001,9.246799945831299E-001,
1.451366666666667E+009,8.052092790603638E-002,1.556507311761379E-002,-2.795099020004273E-001,9.252064228057861E-001,8.052092790603638E-002,1.556507311761379E-002,-2.795099020004273E-001,9.252064228057861E-001,
1.459733333333334E+009,8.695896714925766E-002,-5.058420822024345E-003,-2.546779811382294E-001,9.518229961395264E-001,8.695896714925766E-002,-5.058420822024345E-003,-2.546779811382294E-001,9.518229961395264E-001,
