% Version 1.00
%
%freq[Hz],re:Trc1_S11,im:Trc1_S11,re:Trc2_S21,im:Trc2_S21,re:Trc3_S11,im:Trc3_S11,re:Trc4_S21,im:Trc4_S21,
6.900000000000000E+008,-4.898109287023544E-002,4.033835604786873E-002,-5.065142512321472E-001,-8.500473499298096E-001,-4.898109287023544E-002,4.033835604786873E-002,-5.065142512321472E-001,-8.500473499298096E-001,
6.983666666666666E+008,-4.092271625995636E-002,4.070511832833290E-002,-5.312573313713074E-001,-8.401873111724854E-001,-4.092271625995636E-002,4.070511832833290E-002,-5.312573313713074E-001,-8.401873111724854E-001,
7.067333333333334E+008,-3.503813967108727E-002,3.628731518983841E-002,-5.544794201850891E-001,-8.142980933189392E-001,-3.503813967108727E-002,3.628731518983841E-002,-5.544794201850891E-001,-8.142980933189392E-001,
7.151000000000000E+008,-3.484821319580078E-002,2.862418815493584E-002,-5.888699293136597E-001,-8.121201992034912E-001,-3.484821319580078E-002,2.862418815493584E-002,-5.888699293136597E-001,-8.121201992034912E-001,
7.234666666666666E+008,-3.707997128367424E-002,2.354212291538715E-002,-6.036131978034973E-001,-7.964726090431213E-001,-3.707997128367424E-002,2.354212291538715E-002,-6.036131978034973E-001,-7.964726090431213E-001,
7.318333333333334E+008,-4.457105696201325E-002,2.139552682638168E-002,-6.196604967117310E-001,-7.782840728759766E-001,-4.457105696201325E-002,2.139552682638168E-002,-6.196604967117310E-001,-7.782840728759766E-001,
7.402000000000000E+008,-5.078291147947311E-002,2.363869547843933E-002,-6.308294534683228E-001,-7.532556056976318E-001,-5.078291147947311E-002,2.363869547843933E-002,-6.308294534683228E-001,-7.532556056976318E-001,
7.485666666666666E+008,-5.598039552569389E-002,3.075644560158253E-002,-6.608511209487915E-001,-7.399980425834656E-001,-5.598039552569389E-002,3.075644560158253E-002,-6.608511209487915E-001,-7.399980425834656E-001,
7.569333333333334E+008,-5.968717858195305E-002,4.071610048413277E-002,-6.792559623718262E-001,-7.261005640029907E-001,-5.968717858195305E-002,4.071610048413277E-002,-6.792559623718262E-001,-7.261005640029907E-001,
7.653000000000000E+008,-5.399728193879128E-002,4.961479082703590E-002,-6.873437762260437E-001,-7.077162265777588E-001,-5.399728193879128E-002,4.961479082703590E-002,-6.873437762260437E-001,-7.077162265777588E-001,
7.736666666666666E+008,-4.739173874258995E-002,5.627659335732460E-002,-6.994580626487732E-001,-7.032550573348999E-001,-4.739173874258995E-002,5.627659335732460E-002,-6.994580626487732E-001,-7.032550573348999E-001,
7.820333333333334E+008,-3.842602670192719E-002,6.034235656261444E-002,-7.331662178039551E-001,-6.746503710746765E-001,-3.842602670192719E-002,6.034235656261444E-002,-7.331662178039551E-001,-6.746503710746765E-001,
7.904000000000000E+008,-2.824493497610092E-002,5.919485911726952E-002,-7.416593432426453E-001,-6.563212275505066E-001,-2.824493497610092E-002,5.919485911726952E-002,-7.416593432426453E-001,-6.563212275505066E-001,
7.987666666666666E+008,-2.385195158421993E-002,5.405035614967346E-002,-7.478580474853516E-001,-6.403611302375794E-001,-2.385195158421993E-002,5.405035614967346E-002,-7.478580474853516E-001,-6.403611302375794E-001,
8.071333333333334E+008,-2.203365042805672E-002,4.768617823719978E-002,-7.740371227264404E-001,-6.085321307182312E-001,-2.203365042805672E-002,4.768617823719978E-002,-7.740371227264404E-001,-6.085321307182312E-001,
8.155000000000000E+008,-2.495165169239044E-002,4.072979837656021E-002,-8.001618385314941E-001,-5.967662930488586E-001,-2.495165169239044E-002,4.072979837656021E-002,-8.001618385314941E-001,-5.967662930488586E-001,
8.238666666666666E+008,-3.173646330833435E-002,3.885035961866379E-002,-8.060271739959717E-001,-5.737950205802918E-001,-3.173646330833435E-002,3.885035961866379E-002,-8.060271739959717E-001,-5.737950205802918E-001,
8.322333333333334E+008,-3.729235380887985E-002,4.035454988479614E-002,-8.162431716918945E-001,-5.550532341003418E-001,-3.729235380887985E-002,4.035454988479614E-002,-8.162431716918945E-001,-5.550532341003418E-001,
8.406000000000000E+008,-4.202411696314812E-002,4.380859062075615E-002,-8.285524249076843E-001,-5.322027206420898E-001,-4.202411696314812E-002,4.380859062075615E-002,-8.285524249076843E-001,-5.322027206420898E-001,
8.489666666666668E+008,-4.351075738668442E-002,5.502372607588768E-002,-8.399700522422791E-001,-5.032300353050232E-001,-4.351075738668442E-002,5.502372607588768E-002,-8.399700522422791E-001,-5.032300353050232E-001,
8.573333333333334E+008,-4.125660285353661E-002,6.285563111305237E-002,-8.421487212181091E-001,-4.728339612483978E-001,-4.125660285353661E-002,6.285563111305237E-002,-8.421487212181091E-001,-4.728339612483978E-001,
8.657000000000000E+008,-3.576003760099411E-002,7.037494331598282E-002,-8.703223466873169E-001,-4.762746691703796E-001,-3.576003760099411E-002,7.037494331598282E-002,-8.703223466873169E-001,-4.762746691703796E-001,
8.740666666666668E+008,-2.643418684601784E-002,7.542167603969574E-002,-8.754472136497498E-001,-4.517090320587158E-001,-2.643418684601784E-002,7.542167603969574E-002,-8.754472136497498E-001,-4.517090320587158E-001,
8.824333333333334E+008,-1.801309548318386E-002,7.683791965246201E-002,-8.938397169113159E-001,-4.271812140941620E-001,-1.801309548318386E-002,7.683791965246201E-002,-8.938397169113159E-001,-4.271812140941620E-001,
8.908000000000000E+008,-9.735668078064919E-003,7.333234697580338E-002,-9.076736569404602E-001,-4.094429612159729E-001,-9.735668078064919E-003,7.333234697580338E-002,-9.076736569404602E-001,-4.094429612159729E-001,
8.991666666666668E+008,-4.100362770259380E-003,6.740017235279083E-002,-9.075149893760681E-001,-3.817273080348969E-001,-4.100362770259380E-003,6.740017235279083E-002,-9.075149893760681E-001,-3.817273080348969E-001,
9.075333333333334E+008,-3.648252226412296E-003,6.005539372563362E-002,-9.218524694442749E-001,-3.564826846122742E-001,-3.648252226412296E-003,6.005539372563362E-002,-9.218524694442749E-001,-3.564826846122742E-001,
9.159000000000000E+008,-6.560702808201313E-003,5.432447418570519E-002,-9.425053596496582E-001,-3.315225839614868E-001,-6.560702808201313E-003,5.432447418570519E-002,-9.425053596496582E-001,-3.315225839614868E-001,
9.242666666666668E+008,-1.321772020310164E-002,5.461185052990913E-002,-9.339774847030640E-001,-3.095606565475464E-001,-1.321772020310164E-002,5.461185052990913E-002,-9.339774847030640E-001,-3.095606565475464E-001,
9.326333333333334E+008,-1.815686374902725E-002,5.696980655193329E-002,-9.504565596580505E-001,-2.945328056812286E-001,-1.815686374902725E-002,5.696980655193329E-002,-9.504565596580505E-001,-2.945328056812286E-001,
9.410000000000000E+008,-2.208539284765720E-002,6.128302589058876E-002,-9.602408409118652E-001,-2.588691115379334E-001,-2.208539284765720E-002,6.128302589058876E-002,-9.602408409118652E-001,-2.588691115379334E-001,
9.493666666666668E+008,-2.340096980333328E-002,7.060834765434265E-002,-9.648591876029968E-001,-2.282708436250687E-001,-2.340096980333328E-002,7.060834765434265E-002,-9.648591876029968E-001,-2.282708436250687E-001,
9.577333333333334E+008,-1.951330155134201E-002,8.035215735435486E-002,-9.702675938606262E-001,-2.144000381231308E-001,-1.951330155134201E-002,8.035215735435486E-002,-9.702675938606262E-001,-2.144000381231308E-001,
9.661000000000000E+008,-1.049440540373325E-002,8.686964958906174E-002,-9.703210592269898E-001,-1.723733991384506E-001,-1.049440540373325E-002,8.686964958906174E-002,-9.703210592269898E-001,-1.723733991384506E-001,
9.744666666666668E+008,5.461147520691156E-004,8.681502193212509E-002,-9.684467911720276E-001,-1.628625541925430E-001,5.461147520691156E-004,8.681502193212509E-002,-9.684467911720276E-001,-1.628625541925430E-001,
9.828333333333334E+008,1.011681649833918E-002,8.780290931463242E-002,-9.844482541084290E-001,-1.425408720970154E-001,1.011681649833918E-002,8.780290931463242E-002,-9.844482541084290E-001,-1.425408720970154E-001,
9.912000000000000E+008,2.082793600857258E-002,8.121579140424728E-002,-9.816794991493225E-001,-1.205448284745216E-001,2.082793600857258E-002,8.121579140424728E-002,-9.816794991493225E-001,-1.205448284745216E-001,
9.995666666666668E+008,2.468517608940601E-002,7.345978915691376E-002,-9.942224621772766E-001,-8.360707014799118E-002,2.468517608940601E-002,7.345978915691376E-002,-9.942224621772766E-001,-8.360707014799118E-002,
1.007933333333333E+009,2.835674397647381E-002,6.380352377891541E-002,-1.007631421089172E+000,-6.548858433961868E-002,2.835674397647381E-002,6.380352377891541E-002,-1.007631421089172E+000,-6.548858433961868E-002,
1.016300000000000E+009,2.222773991525173E-002,5.775750800967217E-002,-9.935384988784790E-001,-3.915726020932198E-002,2.222773991525173E-002,5.775750800967217E-002,-9.935384988784790E-001,-3.915726020932198E-002,
1.024666666666667E+009,1.439080480486155E-002,5.414673686027527E-002,-9.893237948417664E-001,-1.320487353950739E-002,1.439080480486155E-002,5.414673686027527E-002,-9.893237948417664E-001,-1.320487353950739E-002,
1.033033333333333E+009,9.467359632253647E-003,5.893631651997566E-002,-9.963496923446655E-001,1.306132506579161E-002,9.467359632253647E-003,5.893631651997566E-002,-9.963496923446655E-001,1.306132506579161E-002,
1.041400000000000E+009,2.999698277562857E-003,6.404508650302887E-002,-9.956099987030029E-001,3.484199941158295E-002,2.999698277562857E-003,6.404508650302887E-002,-9.956099987030029E-001,3.484199941158295E-002,
1.049766666666667E+009,6.435075309127569E-003,7.341248542070389E-002,-9.811701774597168E-001,7.096686214208603E-002,6.435075309127569E-003,7.341248542070389E-002,-9.811701774597168E-001,7.096686214208603E-002,
1.058133333333333E+009,1.111126691102982E-002,8.235171437263489E-002,-9.824128746986389E-001,9.284081310033798E-002,1.111126691102982E-002,8.235171437263489E-002,-9.824128746986389E-001,9.284081310033798E-002,
1.066500000000000E+009,2.270309068262577E-002,8.613650500774384E-002,-9.968371391296387E-001,1.268373131752014E-001,2.270309068262577E-002,8.613650500774384E-002,-9.968371391296387E-001,1.268373131752014E-001,
1.074866666666667E+009,3.658776730298996E-002,8.420228213071823E-002,-9.903503060340881E-001,1.470430046319962E-001,3.658776730298996E-002,8.420228213071823E-002,-9.903503060340881E-001,1.470430046319962E-001,
1.083233333333334E+009,4.551412537693977E-002,7.569324225187302E-002,-9.740359783172607E-001,1.684601902961731E-001,4.551412537693977E-002,7.569324225187302E-002,-9.740359783172607E-001,1.684601902961731E-001,
1.091600000000000E+009,5.211624875664711E-002,6.470284610986710E-002,-9.561614990234375E-001,1.874780952930450E-001,5.211624875664711E-002,6.470284610986710E-002,-9.561614990234375E-001,1.874780952930450E-001,
1.099966666666667E+009,5.115018039941788E-002,5.114681646227837E-002,-9.509609937667847E-001,2.262389510869980E-001,5.115018039941788E-002,5.114681646227837E-002,-9.509609937667847E-001,2.262389510869980E-001,
1.108333333333334E+009,4.290813207626343E-002,4.337092861533165E-002,-9.516272544860840E-001,2.340146154165268E-001,4.290813207626343E-002,4.337092861533165E-002,-9.516272544860840E-001,2.340146154165268E-001,
1.116700000000000E+009,3.249380365014076E-002,4.046980664134026E-002,-9.436300992965698E-001,2.683282196521759E-001,3.249380365014076E-002,4.046980664134026E-002,-9.436300992965698E-001,2.683282196521759E-001,
1.125066666666667E+009,2.153471484780312E-002,4.552970454096794E-002,-9.443141818046570E-001,2.850303351879120E-001,2.153471484780312E-002,4.552970454096794E-002,-9.443141818046570E-001,2.850303351879120E-001,
1.133433333333334E+009,1.405171118676662E-002,5.568475276231766E-002,-9.411735534667969E-001,3.299089372158051E-001,1.405171118676662E-002,5.568475276231766E-002,-9.411735534667969E-001,3.299089372158051E-001,
1.141800000000000E+009,1.331312581896782E-002,6.935189664363861E-002,-9.176847934722900E-001,3.445252180099487E-001,1.331312581896782E-002,6.935189664363861E-002,-9.176847934722900E-001,3.445252180099487E-001,
1.150166666666667E+009,2.267842181026936E-002,8.336755633354187E-002,-9.091373682022095E-001,3.452721238136292E-001,2.267842181026936E-002,8.336755633354187E-002,-9.091373682022095E-001,3.452721238136292E-001,
1.158533333333334E+009,3.921858221292496E-002,8.997365087270737E-002,-9.007738232612610E-001,3.850799202919006E-001,3.921858221292496E-002,8.997365087270737E-002,-9.007738232612610E-001,3.850799202919006E-001,
1.166900000000000E+009,5.870623886585236E-002,8.911544829607010E-002,-8.843104243278503E-001,4.048548936843872E-001,5.870623886585236E-002,8.911544829607010E-002,-8.843104243278503E-001,4.048548936843872E-001,
1.175266666666667E+009,7.462380081415176E-002,7.742570340633392E-002,-8.780758380889893E-001,4.340218901634216E-001,7.462380081415176E-002,7.742570340633392E-002,-8.780758380889893E-001,4.340218901634216E-001,
1.183633333333334E+009,8.663754910230637E-002,6.202992051839829E-002,-8.770344853401184E-001,4.456724822521210E-001,8.663754910230637E-002,6.202992051839829E-002,-8.770344853401184E-001,4.456724822521210E-001,
1.192000000000000E+009,8.635623753070831E-002,4.269565641880035E-002,-8.637304306030273E-001,4.685167968273163E-001,8.635623753070831E-002,4.269565641880035E-002,-8.637304306030273E-001,4.685167968273163E-001,
1.200366666666667E+009,7.674657553434372E-002,2.615013346076012E-002,-8.510593771934509E-001,4.898515045642853E-001,7.674657553434372E-002,2.615013346076012E-002,-8.510593771934509E-001,4.898515045642853E-001,
1.208733333333334E+009,6.177496165037155E-002,1.767989620566368E-002,-8.441604375839233E-001,5.322239995002747E-001,6.177496165037155E-002,1.767989620566368E-002,-8.441604375839233E-001,5.322239995002747E-001,
1.217100000000000E+009,4.596147686243057E-002,1.939958706498146E-002,-8.397414088249207E-001,5.417590141296387E-001,4.596147686243057E-002,1.939958706498146E-002,-8.397414088249207E-001,5.417590141296387E-001,
1.225466666666667E+009,3.407422453165054E-002,3.082621842622757E-002,-8.064712285995483E-001,5.667303204536438E-001,3.407422453165054E-002,3.082621842622757E-002,-8.064712285995483E-001,5.667303204536438E-001,
1.233833333333334E+009,3.024217113852501E-002,4.778310284018517E-002,-8.013908863067627E-001,5.782935619354248E-001,3.024217113852501E-002,4.778310284018517E-002,-8.013908863067627E-001,5.782935619354248E-001,
1.242200000000000E+009,3.909019380807877E-002,6.203972920775414E-002,-7.753558158874512E-001,6.121814250946045E-001,3.909019380807877E-002,6.203972920775414E-002,-7.753558158874512E-001,6.121814250946045E-001,
1.250566666666667E+009,5.263425782322884E-002,7.154735922813416E-002,-7.534994482994080E-001,6.164680123329163E-001,5.263425782322884E-002,7.154735922813416E-002,-7.534994482994080E-001,6.164680123329163E-001,
1.258933333333334E+009,7.304100692272186E-002,7.094918936491013E-002,-7.477341294288635E-001,6.378223299980164E-001,7.304100692272186E-002,7.094918936491013E-002,-7.477341294288635E-001,6.378223299980164E-001,
1.267300000000000E+009,9.244067966938019E-002,5.931748822331429E-002,-7.286179065704346E-001,6.521311998367310E-001,9.244067966938019E-002,5.931748822331429E-002,-7.286179065704346E-001,6.521311998367310E-001,
1.275666666666667E+009,1.011862382292748E-001,4.052493721246719E-002,-7.163068056106567E-001,6.601393818855286E-001,1.011862382292748E-001,4.052493721246719E-002,-7.163068056106567E-001,6.601393818855286E-001,
1.284033333333334E+009,1.029743179678917E-001,1.895431615412235E-002,-7.000803351402283E-001,7.023519873619080E-001,1.029743179678917E-001,1.895431615412235E-002,-7.000803351402283E-001,7.023519873619080E-001,
1.292400000000000E+009,9.254500269889832E-002,2.072500210488215E-004,-6.887832283973694E-001,7.053344845771790E-001,9.254500269889832E-002,2.072500210488215E-004,-6.887832283973694E-001,7.053344845771790E-001,
1.300766666666667E+009,7.303608953952789E-002,-8.224911987781525E-003,-6.655003428459168E-001,7.296350002288818E-001,7.303608953952789E-002,-8.224911987781525E-003,-6.655003428459168E-001,7.296350002288818E-001,
1.309133333333334E+009,5.315124616026878E-002,-6.493005435913801E-003,-6.405143141746521E-001,7.436214089393616E-001,5.315124616026878E-002,-6.493005435913801E-003,-6.405143141746521E-001,7.436214089393616E-001,
1.317500000000000E+009,3.925252333283424E-002,5.970754660665989E-003,-6.278586983680725E-001,7.749438285827637E-001,3.925252333283424E-002,5.970754660665989E-003,-6.278586983680725E-001,7.749438285827637E-001,
1.325866666666667E+009,3.541294857859612E-002,2.320747449994087E-002,-6.072975993156433E-001,7.894765138626099E-001,3.541294857859612E-002,2.320747449994087E-002,-6.072975993156433E-001,7.894765138626099E-001,
1.334233333333334E+009,4.433824494481087E-002,4.072951897978783E-002,-5.884602665901184E-001,7.951200604438782E-001,4.433824494481087E-002,4.072951897978783E-002,-5.884602665901184E-001,7.951200604438782E-001,
1.342600000000000E+009,6.027518212795258E-002,4.923930391669273E-002,-5.702671408653259E-001,8.119722604751587E-001,6.027518212795258E-002,4.923930391669273E-002,-5.702671408653259E-001,8.119722604751587E-001,
1.350966666666667E+009,8.047534525394440E-002,4.564915597438812E-002,-5.441402792930603E-001,8.237486481666565E-001,8.047534525394440E-002,4.564915597438812E-002,-5.441402792930603E-001,8.237486481666565E-001,
1.359333333333334E+009,9.498500823974609E-002,3.132326155900955E-002,-5.307553410530090E-001,8.231493234634399E-001,9.498500823974609E-002,3.132326155900955E-002,-5.307553410530090E-001,8.231493234634399E-001,
1.367700000000000E+009,1.003832146525383E-001,1.089731790125370E-002,-4.974464476108551E-001,8.412704467773438E-001,1.003832146525383E-001,1.089731790125370E-002,-4.974464476108551E-001,8.412704467773438E-001,
1.376066666666667E+009,9.616468846797943E-002,-1.189713831990957E-002,-4.821005165576935E-001,8.508842587471008E-001,9.616468846797943E-002,-1.189713831990957E-002,-4.821005165576935E-001,8.508842587471008E-001,
1.384433333333334E+009,7.865249365568161E-002,-2.727087587118149E-002,-4.668275117874146E-001,8.808780908584595E-001,7.865249365568161E-002,-2.727087587118149E-002,-4.668275117874146E-001,8.808780908584595E-001,
1.392800000000000E+009,5.816520377993584E-002,-2.961139008402824E-002,-4.457050859928131E-001,8.898850083351135E-001,5.816520377993584E-002,-2.961139008402824E-002,-4.457050859928131E-001,8.898850083351135E-001,
1.401166666666667E+009,3.818876668810844E-002,-2.201591059565544E-002,-4.188866019248962E-001,8.969333171844482E-001,3.818876668810844E-002,-2.201591059565544E-002,-4.188866019248962E-001,8.969333171844482E-001,
1.409533333333334E+009,2.541819773614407E-002,-4.685147665441036E-003,-3.890063464641571E-001,9.114443659782410E-001,2.541819773614407E-002,-4.685147665441036E-003,-3.890063464641571E-001,9.114443659782410E-001,
1.417900000000000E+009,2.722047269344330E-002,1.863989792764187E-002,-3.691067993640900E-001,9.075764417648315E-001,2.722047269344330E-002,1.863989792764187E-002,-3.691067993640900E-001,9.075764417648315E-001,
1.426266666666667E+009,3.874634578824043E-002,3.541256859898567E-002,-3.318436145782471E-001,9.330536127090454E-001,3.874634578824043E-002,3.541256859898567E-002,-3.318436145782471E-001,9.330536127090454E-001,
1.434633333333334E+009,5.963711813092232E-002,4.317317157983780E-002,-3.218835592269898E-001,9.272160530090332E-001,5.963711813092232E-002,4.317317157983780E-002,-3.218835592269898E-001,9.272160530090332E-001,
1.443000000000000E+009,8.015819638967514E-002,3.981034457683563E-002,-2.978399693965912E-001,9.341422915458679E-001,8.015819638967514E-002,3.981034457683563E-002,-2.978399693965912E-001,9.341422915458679E-001,
1.451366666666667E+009,9.568507969379425E-002,2.361347153782845E-002,-2.711514532566071E-001,9.342152476310730E-001,9.568507969379425E-002,2.361347153782845E-002,-2.711514532566071E-001,9.342152476310730E-001,
1.459733333333334E+009,1.016502976417542E-001,2.823366317898035E-003,-2.458817958831787E-001,9.613211750984192E-001,1.016502976417542E-001,2.823366317898035E-003,-2.458817958831787E-001,9.613211750984192E-001,
