% Version 1.00
%
%freq[Hz],re:Trc1_S11,im:Trc1_S11,re:Trc2_S21,im:Trc2_S21,re:Trc3_S11,im:Trc3_S11,re:Trc4_S21,im:Trc4_S21,
6.900000000000000E+008,-5.533616617321968E-002,4.455061629414558E-002,-5.098255276679993E-001,-8.474219441413879E-001,-5.533616617321968E-002,4.455061629414558E-002,-5.098255276679993E-001,-8.474219441413879E-001,
6.983666666666666E+008,-4.725949093699455E-002,4.457210004329681E-002,-5.342829823493958E-001,-8.317190408706665E-001,-4.725949093699455E-002,4.457210004329681E-002,-5.342829823493958E-001,-8.317190408706665E-001,
7.067333333333334E+008,-4.144429415464401E-002,4.027657210826874E-002,-5.578891634941101E-001,-8.075509667396545E-001,-4.144429415464401E-002,4.027657210826874E-002,-5.578891634941101E-001,-8.075509667396545E-001,
7.151000000000000E+008,-4.016131907701492E-002,3.305959701538086E-002,-5.948011279106140E-001,-8.059719800949097E-001,-4.016131907701492E-002,3.305959701538086E-002,-5.948011279106140E-001,-8.059719800949097E-001,
7.234666666666666E+008,-4.226841032505035E-002,2.857931703329086E-002,-6.064833998680115E-001,-7.914576530456543E-001,-4.226841032505035E-002,2.857931703329086E-002,-6.064833998680115E-001,-7.914576530456543E-001,
7.318333333333334E+008,-4.933871328830719E-002,2.725100703537464E-002,-6.259027719497681E-001,-7.681425213813782E-001,-4.933871328830719E-002,2.725100703537464E-002,-6.259027719497681E-001,-7.681425213813782E-001,
7.402000000000000E+008,-5.513781309127808E-002,2.949735708534718E-002,-6.349845528602600E-001,-7.448031306266785E-001,-5.513781309127808E-002,2.949735708534718E-002,-6.349845528602600E-001,-7.448031306266785E-001,
7.485666666666666E+008,-6.008907034993172E-002,3.727132081985474E-002,-6.649633049964905E-001,-7.306464910507202E-001,-6.008907034993172E-002,3.727132081985474E-002,-6.649633049964905E-001,-7.306464910507202E-001,
7.569333333333334E+008,-6.370001286268234E-002,4.759424179792404E-002,-6.846501231193543E-001,-7.177632451057434E-001,-6.370001286268234E-002,4.759424179792404E-002,-6.846501231193543E-001,-7.177632451057434E-001,
7.653000000000000E+008,-5.821822583675385E-002,5.638900399208069E-002,-6.910712718963623E-001,-7.013061642646790E-001,-5.821822583675385E-002,5.638900399208069E-002,-6.910712718963623E-001,-7.013061642646790E-001,
7.736666666666666E+008,-5.202944204211235E-002,6.323756277561188E-002,-7.046726346015930E-001,-6.966558098793030E-001,-5.202944204211235E-002,6.323756277561188E-002,-7.046726346015930E-001,-6.966558098793030E-001,
7.820333333333334E+008,-4.387298226356506E-002,6.648255139589310E-002,-7.344623208045960E-001,-6.682813167572022E-001,-4.387298226356506E-002,6.648255139589310E-002,-7.344623208045960E-001,-6.682813167572022E-001,
7.904000000000000E+008,-3.345534950494766E-002,6.558429449796677E-002,-7.450774908065796E-001,-6.492773294448853E-001,-3.345534950494766E-002,6.558429449796677E-002,-7.450774908065796E-001,-6.492773294448853E-001,
7.987666666666666E+008,-2.954890951514244E-002,6.035752594470978E-002,-7.515032291412354E-001,-6.304065585136414E-001,-2.954890951514244E-002,6.035752594470978E-002,-7.515032291412354E-001,-6.304065585136414E-001,
8.071333333333334E+008,-2.747289650142193E-002,5.378704890608788E-002,-7.789084315299988E-001,-5.969253778457642E-001,-2.747289650142193E-002,5.378704890608788E-002,-7.789084315299988E-001,-5.969253778457642E-001,
8.155000000000000E+008,-2.985286898910999E-002,4.713855311274529E-002,-8.057576417922974E-001,-5.891468524932861E-001,-2.985286898910999E-002,4.713855311274529E-002,-8.057576417922974E-001,-5.891468524932861E-001,
8.238666666666666E+008,-3.598400950431824E-002,4.603415355086327E-002,-8.114926815032959E-001,-5.631940364837647E-001,-3.598400950431824E-002,4.603415355086327E-002,-8.114926815032959E-001,-5.631940364837647E-001,
8.322333333333334E+008,-4.108570516109467E-002,4.784018918871880E-002,-8.196344971656799E-001,-5.452936887741089E-001,-4.108570516109467E-002,4.784018918871880E-002,-8.196344971656799E-001,-5.452936887741089E-001,
8.406000000000000E+008,-4.469043016433716E-002,5.191300064325333E-002,-8.328305482864380E-001,-5.225870013237000E-001,-4.469043016433716E-002,5.191300064325333E-002,-8.328305482864380E-001,-5.225870013237000E-001,
8.489666666666668E+008,-4.616528749465942E-002,6.319467723369598E-002,-8.446546792984009E-001,-4.935579299926758E-001,-4.616528749465942E-002,6.319467723369598E-002,-8.446546792984009E-001,-4.935579299926758E-001,
8.573333333333334E+008,-4.334768280386925E-002,7.172396779060364E-002,-8.445698618888855E-001,-4.659854173660278E-001,-4.334768280386925E-002,7.172396779060364E-002,-8.445698618888855E-001,-4.659854173660278E-001,
8.657000000000000E+008,-3.849896416068077E-002,7.938205450773239E-002,-8.684359192848206E-001,-4.697957336902618E-001,-3.849896416068077E-002,7.938205450773239E-002,-8.684359192848206E-001,-4.697957336902618E-001,
8.740666666666668E+008,-2.939045988023281E-002,8.475872874259949E-002,-8.783567547798157E-001,-4.408991336822510E-001,-2.939045988023281E-002,8.475872874259949E-002,-8.783567547798157E-001,-4.408991336822510E-001,
8.824333333333334E+008,-2.142095752060413E-002,8.621996641159058E-002,-8.966060280799866E-001,-4.175094664096832E-001,-2.142095752060413E-002,8.621996641159058E-002,-8.966060280799866E-001,-4.175094664096832E-001,
8.908000000000000E+008,-1.352059654891491E-002,8.293325453996658E-002,-9.119179248809815E-001,-4.008579850196838E-001,-1.352059654891491E-002,8.293325453996658E-002,-9.119179248809815E-001,-4.008579850196838E-001,
8.991666666666668E+008,-7.631282787770033E-003,7.635059952735901E-002,-9.095112085342407E-001,-3.723209202289581E-001,-7.631282787770033E-003,7.635059952735901E-002,-9.095112085342407E-001,-3.723209202289581E-001,
9.075333333333334E+008,-6.843918003141880E-003,6.883425265550613E-002,-9.223721027374268E-001,-3.505074679851532E-001,-6.843918003141880E-003,6.883425265550613E-002,-9.223721027374268E-001,-3.505074679851532E-001,
9.159000000000000E+008,-9.258004836738110E-003,6.300042569637299E-002,-9.435741901397705E-001,-3.197445869445801E-001,-9.258004836738110E-003,6.300042569637299E-002,-9.435741901397705E-001,-3.197445869445801E-001,
9.242666666666668E+008,-1.542073022574186E-002,6.313013285398483E-002,-9.360265731811523E-001,-2.983028590679169E-001,-1.542073022574186E-002,6.313013285398483E-002,-9.360265731811523E-001,-2.983028590679169E-001,
9.326333333333334E+008,-1.954240165650845E-002,6.585741788148880E-002,-9.510923624038696E-001,-2.836625277996063E-001,-1.954240165650845E-002,6.585741788148880E-002,-9.510923624038696E-001,-2.836625277996063E-001,
9.410000000000000E+008,-2.283428050577641E-002,7.037436962127686E-002,-9.603400230407715E-001,-2.478824853897095E-001,-2.283428050577641E-002,7.037436962127686E-002,-9.603400230407715E-001,-2.478824853897095E-001,
9.493666666666668E+008,-2.399302460253239E-002,8.037819713354111E-002,-9.668292999267578E-001,-2.180640250444412E-001,-2.399302460253239E-002,8.037819713354111E-002,-9.668292999267578E-001,-2.180640250444412E-001,
9.577333333333334E+008,-1.971470564603806E-002,9.046676754951477E-002,-9.696735143661499E-001,-2.042522281408310E-001,-1.971470564603806E-002,9.046676754951477E-002,-9.696735143661499E-001,-2.042522281408310E-001,
9.661000000000000E+008,-1.049266010522842E-002,9.759669750928879E-002,-9.715803861618042E-001,-1.613297015428543E-001,-1.049266010522842E-002,9.759669750928879E-002,-9.715803861618042E-001,-1.613297015428543E-001,
9.744666666666668E+008,4.498613998293877E-004,9.758850187063217E-002,-9.684215784072876E-001,-1.510730683803558E-001,4.498613998293877E-004,9.758850187063217E-002,-9.684215784072876E-001,-1.510730683803558E-001,
9.828333333333334E+008,9.433926083147526E-003,9.860467165708542E-002,-9.848290085792542E-001,-1.331736892461777E-001,9.433926083147526E-003,9.860467165708542E-002,-9.848290085792542E-001,-1.331736892461777E-001,
9.912000000000000E+008,1.962708495557308E-002,9.204095602035523E-002,-9.816478490829468E-001,-1.116608902812004E-001,1.962708495557308E-002,9.204095602035523E-002,-9.816478490829468E-001,-1.116608902812004E-001,
9.995666666666668E+008,2.359659411013126E-002,8.434587717056274E-002,-9.960919618606567E-001,-7.406549900770187E-002,2.359659411013126E-002,8.434587717056274E-002,-9.960919618606567E-001,-7.406549900770187E-002,
1.007933333333333E+009,2.784863673150539E-002,7.464595139026642E-002,-1.006646394729614E+000,-5.378647148609161E-002,2.784863673150539E-002,7.464595139026642E-002,-1.006646394729614E+000,-5.378647148609161E-002,
1.016300000000000E+009,2.224207855761051E-002,6.815464049577713E-002,-9.974493384361267E-001,-2.687276154756546E-002,2.224207855761051E-002,6.815464049577713E-002,-9.974493384361267E-001,-2.687276154756546E-002,
1.024666666666667E+009,1.494587771594524E-002,6.443157792091370E-002,-9.889575242996216E-001,-3.836226882413030E-003,1.494587771594524E-002,6.443157792091370E-002,-9.889575242996216E-001,-3.836226882413030E-003,
1.033033333333333E+009,1.087816711515188E-002,6.905432045459747E-002,-9.998336434364319E-001,2.455062232911587E-002,1.087816711515188E-002,6.905432045459747E-002,-9.998336434364319E-001,2.455062232911587E-002,
1.041400000000000E+009,4.896847531199455E-003,7.412808388471603E-002,-9.958584904670715E-001,4.335872828960419E-002,4.896847531199455E-003,7.412808388471603E-002,-9.958584904670715E-001,4.335872828960419E-002,
1.049766666666667E+009,9.585471823811531E-003,8.396250754594803E-002,-9.801256656646729E-001,7.927918434143066E-002,9.585471823811531E-003,8.396250754594803E-002,-9.801256656646729E-001,7.927918434143066E-002,
1.058133333333333E+009,1.435363013297319E-002,9.344412386417389E-002,-9.815328717231751E-001,1.013332009315491E-001,1.435363013297319E-002,9.344412386417389E-002,-9.815328717231751E-001,1.013332009315491E-001,
1.066500000000000E+009,2.594731561839581E-002,9.794908761978149E-002,-9.958386421203613E-001,1.354849040508270E-001,2.594731561839581E-002,9.794908761978149E-002,-9.958386421203613E-001,1.354849040508270E-001,
1.074866666666667E+009,3.995912522077560E-002,9.681271761655808E-002,-9.900009036064148E-001,1.584503948688507E-001,3.995912522077560E-002,9.681271761655808E-002,-9.900009036064148E-001,1.584503948688507E-001,
1.083233333333334E+009,4.826356098055840E-002,8.852285146713257E-002,-9.699265360832214E-001,1.789839714765549E-001,4.826356098055840E-002,8.852285146713257E-002,-9.699265360832214E-001,1.789839714765549E-001,
1.091600000000000E+009,5.512176081538200E-002,7.761695981025696E-002,-9.545227885246277E-001,1.967359781265259E-001,5.512176081538200E-002,7.761695981025696E-002,-9.545227885246277E-001,1.967359781265259E-001,
1.099966666666667E+009,5.421549081802368E-002,6.413042545318604E-002,-9.492462873458862E-001,2.381579130887985E-001,5.421549081802368E-002,6.413042545318604E-002,-9.492462873458862E-001,2.381579130887985E-001,
1.108333333333334E+009,4.552109539508820E-002,5.576783418655396E-002,-9.481543302536011E-001,2.444604486227036E-001,4.552109539508820E-002,5.576783418655396E-002,-9.481543302536011E-001,2.444604486227036E-001,
1.116700000000000E+009,3.592755645513535E-002,5.231587216258049E-002,-9.412047863006592E-001,2.766804993152618E-001,3.592755645513535E-002,5.231587216258049E-002,-9.412047863006592E-001,2.766804993152618E-001,
1.125066666666667E+009,2.555956505239010E-002,5.645574629306793E-002,-9.411606788635254E-001,2.945564389228821E-001,2.555956505239010E-002,5.645574629306793E-002,-9.411606788635254E-001,2.945564389228821E-001,
1.133433333333334E+009,1.884862966835499E-002,6.611001491546631E-002,-9.397847056388855E-001,3.409502804279327E-001,1.884862966835499E-002,6.611001491546631E-002,-9.397847056388855E-001,3.409502804279327E-001,
1.141800000000000E+009,1.928603090345860E-002,7.967246323823929E-002,-9.147060513496399E-001,3.570633530616760E-001,1.928603090345860E-002,7.967246323823929E-002,-9.147060513496399E-001,3.570633530616760E-001,
1.150166666666667E+009,2.928847447037697E-002,9.330186247825623E-002,-9.064275026321411E-001,3.548391461372376E-001,2.928847447037697E-002,9.330186247825623E-002,-9.064275026321411E-001,3.548391461372376E-001,
1.158533333333334E+009,4.661275446414948E-002,1.001186370849609E-001,-8.962169289588928E-001,3.960602879524231E-001,4.661275446414948E-002,1.001186370849609E-001,-8.962169289588928E-001,3.960602879524231E-001,
1.166900000000000E+009,6.671205163002014E-002,1.001703217625618E-001,-8.817293643951416E-001,4.163301885128021E-001,6.671205163002014E-002,1.001703217625618E-001,-8.817293643951416E-001,4.163301885128021E-001,
1.175266666666667E+009,8.199483901262283E-002,8.846748620271683E-002,-8.721963167190552E-001,4.441382288932800E-001,8.199483901262283E-002,8.846748620271683E-002,-8.721963167190552E-001,4.441382288932800E-001,
1.183633333333334E+009,9.446092694997788E-002,7.340651750564575E-002,-8.720797896385193E-001,4.589304924011231E-001,9.446092694997788E-002,7.340651750564575E-002,-8.720797896385193E-001,4.589304924011231E-001,
1.192000000000000E+009,9.360974282026291E-002,5.500954017043114E-002,-8.606001734733582E-001,4.775750339031220E-001,9.360974282026291E-002,5.500954017043114E-002,-8.606001734733582E-001,4.775750339031220E-001,
1.200366666666667E+009,8.366092294454575E-002,3.800694271922112E-002,-8.442534804344177E-001,4.994460940361023E-001,8.366092294454575E-002,3.800694271922112E-002,-8.442534804344177E-001,4.994460940361023E-001,
1.208733333333334E+009,6.856901943683624E-002,2.939243614673615E-002,-8.408715724945068E-001,5.414915084838867E-001,6.856901943683624E-002,2.939243614673615E-002,-8.408715724945068E-001,5.414915084838867E-001,
1.217100000000000E+009,5.321765691041946E-002,2.982267737388611E-002,-8.312290310859680E-001,5.568394660949707E-001,5.321765691041946E-002,2.982267737388611E-002,-8.312290310859680E-001,5.568394660949707E-001,
1.225466666666667E+009,4.195308312773705E-002,4.118033125996590E-002,-8.047834634780884E-001,5.792065858840942E-001,4.195308312773705E-002,4.118033125996590E-002,-8.047834634780884E-001,5.792065858840942E-001,
1.233833333333334E+009,3.845093771815300E-002,5.709924548864365E-002,-7.944503426551819E-001,5.899130702018738E-001,3.845093771815300E-002,5.709924548864365E-002,-7.944503426551819E-001,5.899130702018738E-001,
1.242200000000000E+009,4.895776882767677E-002,7.064619660377502E-002,-7.657659053802490E-001,6.206539869308472E-001,4.895776882767677E-002,7.064619660377502E-002,-7.657659053802490E-001,6.206539869308472E-001,
1.250566666666667E+009,6.339738517999649E-002,7.986441254615784E-002,-7.458273172378540E-001,6.245164871215820E-001,6.339738517999649E-002,7.986441254615784E-002,-7.458273172378540E-001,6.245164871215820E-001,
1.258933333333334E+009,8.429545909166336E-002,7.927601784467697E-002,-7.387092709541321E-001,6.513172388076782E-001,8.429545909166336E-002,7.927601784467697E-002,-7.387092709541321E-001,6.513172388076782E-001,
1.267300000000000E+009,1.050071716308594E-001,6.809258460998535E-002,-7.208264470100403E-001,6.625302433967590E-001,1.050071716308594E-001,6.809258460998535E-002,-7.208264470100403E-001,6.625302433967590E-001,
1.275666666666667E+009,1.136694028973579E-001,4.959465563297272E-002,-7.077332139015198E-001,6.707763671875000E-001,1.136694028973579E-001,4.959465563297272E-002,-7.077332139015198E-001,6.707763671875000E-001,
1.284033333333334E+009,1.157911643385887E-001,2.825648523867130E-002,-6.942674517631531E-001,7.158952951431274E-001,1.157911643385887E-001,2.825648523867130E-002,-6.942674517631531E-001,7.158952951431274E-001,
1.292400000000000E+009,1.047125235199928E-001,9.408731944859028E-003,-6.804108023643494E-001,7.145527005195618E-001,1.047125235199928E-001,9.408731944859028E-003,-6.804108023643494E-001,7.145527005195618E-001,
1.300766666666667E+009,8.445119857788086E-002,1.106428215280175E-003,-6.557843685150147E-001,7.384254932403565E-001,8.445119857788086E-002,1.106428215280175E-003,-6.557843685150147E-001,7.384254932403565E-001,
1.309133333333334E+009,6.418848037719727E-002,2.217128640040755E-003,-6.292397975921631E-001,7.537419795989990E-001,6.418848037719727E-002,2.217128640040755E-003,-6.292397975921631E-001,7.537419795989990E-001,
1.317500000000000E+009,5.042426660656929E-002,1.392334699630737E-002,-6.174323558807373E-001,7.891210913658142E-001,5.042426660656929E-002,1.392334699630737E-002,-6.174323558807373E-001,7.891210913658142E-001,
1.325866666666667E+009,4.628466069698334E-002,3.027902543544769E-002,-5.966612100601196E-001,7.984445691108704E-001,4.628466069698334E-002,3.027902543544769E-002,-5.966612100601196E-001,7.984445691108704E-001,
1.334233333333334E+009,5.596840754151344E-002,4.674729704856873E-002,-5.766792893409729E-001,8.051740527153015E-001,5.596840754151344E-002,4.674729704856873E-002,-5.766792893409729E-001,8.051740527153015E-001,
1.342600000000000E+009,7.300154119729996E-002,5.424683541059494E-002,-5.608522891998291E-001,8.216665387153626E-001,7.300154119729996E-002,5.424683541059494E-002,-5.608522891998291E-001,8.216665387153626E-001,
1.350966666666667E+009,9.421283006668091E-002,5.012019723653793E-002,-5.321366190910339E-001,8.332227468490601E-001,9.421283006668091E-002,5.012019723653793E-002,-5.321366190910339E-001,8.332227468490601E-001,
1.359333333333334E+009,1.096588894724846E-001,3.599559515714645E-002,-5.185756087303162E-001,8.322055339813232E-001,1.096588894724846E-001,3.599559515714645E-002,-5.185756087303162E-001,8.322055339813232E-001,
1.367700000000000E+009,1.155063733458519E-001,1.549664326012135E-002,-4.855309128761292E-001,8.486101627349854E-001,1.155063733458519E-001,1.549664326012135E-002,-4.855309128761292E-001,8.486101627349854E-001,
1.376066666666667E+009,1.119229719042778E-001,-6.762439850717783E-003,-4.718751013278961E-001,8.594707846641541E-001,1.119229719042778E-001,-6.762439850717783E-003,-4.718751013278961E-001,8.594707846641541E-001,
1.384433333333334E+009,9.437996149063110E-002,-2.150768041610718E-002,-4.573392271995544E-001,8.882012963294983E-001,9.437996149063110E-002,-2.150768041610718E-002,-4.573392271995544E-001,8.882012963294983E-001,
1.392800000000000E+009,7.351352274417877E-002,-2.404901944100857E-002,-4.313954412937164E-001,8.981018066406250E-001,7.351352274417877E-002,-2.404901944100857E-002,-4.313954412937164E-001,8.981018066406250E-001,
1.401166666666667E+009,5.277277156710625E-002,-1.564604416489601E-002,-4.063600301742554E-001,9.054426550865173E-001,5.277277156710625E-002,-1.564604416489601E-002,-4.063600301742554E-001,9.054426550865173E-001,
1.409533333333334E+009,3.936154767870903E-002,8.662519394420087E-004,-3.769490420818329E-001,9.182678461074829E-001,3.936154767870903E-002,8.662519394420087E-004,-3.769490420818329E-001,9.182678461074829E-001,
1.417900000000000E+009,4.119779914617539E-002,2.389834821224213E-002,-3.573488295078278E-001,9.152318835258484E-001,4.119779914617539E-002,2.389834821224213E-002,-3.573488295078278E-001,9.152318835258484E-001,
1.426266666666667E+009,5.260706320405006E-002,3.953382000327110E-002,-3.192585110664368E-001,9.392896294593811E-001,5.260706320405006E-002,3.953382000327110E-002,-3.192585110664368E-001,9.392896294593811E-001,
1.434633333333334E+009,7.467643171548843E-002,4.561553150415421E-002,-3.073181211948395E-001,9.336450099945068E-001,7.467643171548843E-002,4.561553150415421E-002,-3.073181211948395E-001,9.336450099945068E-001,
1.443000000000000E+009,9.535469114780426E-002,4.065109416842461E-002,-2.833664119243622E-001,9.385894536972046E-001,9.535469114780426E-002,4.065109416842461E-002,-2.833664119243622E-001,9.385894536972046E-001,
1.451366666666667E+009,1.117718964815140E-001,2.347290888428688E-002,-2.558462917804718E-001,9.391230940818787E-001,1.117718964815140E-001,2.347290888428688E-002,-2.558462917804718E-001,9.391230940818787E-001,
1.459733333333334E+009,1.181944310665131E-001,2.274099737405777E-003,-2.325947880744934E-001,9.630822539329529E-001,1.181944310665131E-001,2.274099737405777E-003,-2.325947880744934E-001,9.630822539329529E-001,
