% Version 1.00
%
%freq[Hz],re:Trc1_S11,im:Trc1_S11,re:Trc2_S21,im:Trc2_S21,re:Trc3_S11,im:Trc3_S11,re:Trc4_S21,im:Trc4_S21,
6.900000000000000E+008,-4.905787855386734E-002,4.139894619584084E-002,-5.100740194320679E-001,-8.472992777824402E-001,-4.905787855386734E-002,4.139894619584084E-002,-5.100740194320679E-001,-8.472992777824402E-001,
6.983666666666666E+008,-4.097793623805046E-002,4.155680537223816E-002,-5.344234704971314E-001,-8.357126116752625E-001,-4.097793623805046E-002,4.155680537223816E-002,-5.344234704971314E-001,-8.357126116752625E-001,
7.067333333333334E+008,-3.524275124073029E-002,3.699725121259689E-002,-5.570219755172730E-001,-8.099101185798645E-001,-3.524275124073029E-002,3.699725121259689E-002,-5.570219755172730E-001,-8.099101185798645E-001,
7.151000000000000E+008,-3.507522493600845E-002,2.952245064079762E-002,-5.926526188850403E-001,-8.072558641433716E-001,-3.507522493600845E-002,2.952245064079762E-002,-5.926526188850403E-001,-8.072558641433716E-001,
7.234666666666666E+008,-3.714040666818619E-002,2.445503138005734E-002,-6.056046485900879E-001,-7.914037108421326E-001,-3.714040666818619E-002,2.445503138005734E-002,-6.056046485900879E-001,-7.914037108421326E-001,
7.318333333333334E+008,-4.450565949082375E-002,2.225837297737598E-002,-6.231763958930969E-001,-7.735155820846558E-001,-4.450565949082375E-002,2.225837297737598E-002,-6.231763958930969E-001,-7.735155820846558E-001,
7.402000000000000E+008,-5.059950426220894E-002,2.452086471021175E-002,-6.342851519584656E-001,-7.491964101791382E-001,-5.059950426220894E-002,2.452086471021175E-002,-6.342851519584656E-001,-7.491964101791382E-001,
7.485666666666666E+008,-5.587452650070190E-002,3.186164796352387E-002,-6.631228923797607E-001,-7.354763150215149E-001,-5.587452650070190E-002,3.186164796352387E-002,-6.631228923797607E-001,-7.354763150215149E-001,
7.569333333333334E+008,-5.936187505722046E-002,4.165038838982582E-002,-6.811407208442688E-001,-7.227103710174561E-001,-5.936187505722046E-002,4.165038838982582E-002,-6.811407208442688E-001,-7.227103710174561E-001,
7.653000000000000E+008,-5.371923744678497E-002,5.056811496615410E-002,-6.893023252487183E-001,-7.025154829025269E-001,-5.371923744678497E-002,5.056811496615410E-002,-6.893023252487183E-001,-7.025154829025269E-001,
7.736666666666666E+008,-4.720287024974823E-002,5.716927722096443E-002,-7.021837234497070E-001,-6.985176801681519E-001,-4.720287024974823E-002,5.716927722096443E-002,-7.021837234497070E-001,-6.985176801681519E-001,
7.820333333333334E+008,-3.828524053096771E-002,6.116178259253502E-002,-7.349567413330078E-001,-6.701396703720093E-001,-3.828524053096771E-002,6.116178259253502E-002,-7.349567413330078E-001,-6.701396703720093E-001,
7.904000000000000E+008,-2.818220853805542E-002,6.008633226156235E-002,-7.443042397499085E-001,-6.512300372123718E-001,-2.818220853805542E-002,6.008633226156235E-002,-7.443042397499085E-001,-6.512300372123718E-001,
7.987666666666666E+008,-2.395692281424999E-002,5.490370839834213E-002,-7.497502565383911E-001,-6.355721354484558E-001,-2.395692281424999E-002,5.490370839834213E-002,-7.497502565383911E-001,-6.355721354484558E-001,
8.071333333333334E+008,-2.217553928494453E-002,4.848068207502365E-002,-7.756367921829224E-001,-6.027010083198547E-001,-2.217553928494453E-002,4.848068207502365E-002,-7.756367921829224E-001,-6.027010083198547E-001,
8.155000000000000E+008,-2.520659379661083E-002,4.153492301702499E-002,-8.016861677169800E-001,-5.917981863021851E-001,-2.520659379661083E-002,4.153492301702499E-002,-8.016861677169800E-001,-5.917981863021851E-001,
8.238666666666666E+008,-3.188258782029152E-002,3.988065198063850E-002,-8.077398538589478E-001,-5.680391192436218E-001,-3.188258782029152E-002,3.988065198063850E-002,-8.077398538589478E-001,-5.680391192436218E-001,
8.322333333333334E+008,-3.737538307905197E-002,4.145340994000435E-002,-8.176212310791016E-001,-5.498889088630676E-001,-3.737538307905197E-002,4.145340994000435E-002,-8.176212310791016E-001,-5.498889088630676E-001,
8.406000000000000E+008,-4.186174646019936E-002,4.486624151468277E-002,-8.296051025390625E-001,-5.270278453826904E-001,-4.186174646019936E-002,4.486624151468277E-002,-8.296051025390625E-001,-5.270278453826904E-001,
8.489666666666668E+008,-4.314066469669342E-002,5.609663203358650E-002,-8.407996296882629E-001,-4.979887902736664E-001,-4.314066469669342E-002,5.609663203358650E-002,-8.407996296882629E-001,-4.979887902736664E-001,
8.573333333333334E+008,-4.066089168190956E-002,6.403517723083496E-002,-8.418461680412293E-001,-4.672781229019165E-001,-4.066089168190956E-002,6.403517723083496E-002,-8.418461680412293E-001,-4.672781229019165E-001,
8.657000000000000E+008,-3.518281877040863E-002,7.144451886415482E-002,-8.700897097587585E-001,-4.702785313129425E-001,-3.518281877040863E-002,7.144451886415482E-002,-8.700897097587585E-001,-4.702785313129425E-001,
8.740666666666668E+008,-2.569256722927094E-002,7.647267729043961E-002,-8.764190077781677E-001,-4.469006955623627E-001,-2.569256722927094E-002,7.647267729043961E-002,-8.764190077781677E-001,-4.469006955623627E-001,
8.824333333333334E+008,-1.743152551352978E-002,7.790800929069519E-002,-8.946050405502319E-001,-4.218943715095520E-001,-1.743152551352978E-002,7.790800929069519E-002,-8.946050405502319E-001,-4.218943715095520E-001,
8.908000000000000E+008,-9.248880669474602E-003,7.429274171590805E-002,-9.081274271011353E-001,-4.035107493400574E-001,-9.248880669474602E-003,7.429274171590805E-002,-9.081274271011353E-001,-4.035107493400574E-001,
8.991666666666668E+008,-3.717342857271433E-003,6.843919306993485E-002,-9.076723456382752E-001,-3.765389323234558E-001,-3.717342857271433E-003,6.843919306993485E-002,-9.076723456382752E-001,-3.765389323234558E-001,
9.075333333333334E+008,-3.314473899081349E-003,6.096062436699867E-002,-9.217839241027832E-001,-3.511743247509003E-001,-3.314473899081349E-003,6.096062436699867E-002,-9.217839241027832E-001,-3.511743247509003E-001,
9.159000000000000E+008,-6.296113133430481E-003,5.525310710072517E-002,-9.428552389144898E-001,-3.255600631237030E-001,-6.296113133430481E-003,5.525310710072517E-002,-9.428552389144898E-001,-3.255600631237030E-001,
9.242666666666668E+008,-1.296469010412693E-002,5.556664988398552E-002,-9.337819814682007E-001,-3.034462630748749E-001,-1.296469010412693E-002,5.556664988398552E-002,-9.337819814682007E-001,-3.034462630748749E-001,
9.326333333333334E+008,-1.781782880425453E-002,5.788363143801689E-002,-9.499021768569946E-001,-2.886891067028046E-001,-1.781782880425453E-002,5.788363143801689E-002,-9.499021768569946E-001,-2.886891067028046E-001,
9.410000000000000E+008,-2.151248045265675E-002,6.217826157808304E-002,-9.588009119033814E-001,-2.533293962478638E-001,-2.151248045265675E-002,6.217826157808304E-002,-9.588009119033814E-001,-2.533293962478638E-001,
9.493666666666668E+008,-2.257518656551838E-002,7.164618372917175E-002,-9.648510217666626E-001,-2.221285253763199E-001,-2.257518656551838E-002,7.164618372917175E-002,-9.648510217666626E-001,-2.221285253763199E-001,
9.577333333333334E+008,-1.859497278928757E-002,8.133336156606674E-002,-9.696642756462097E-001,-2.086183726787567E-001,-1.859497278928757E-002,8.133336156606674E-002,-9.696642756462097E-001,-2.086183726787567E-001,
9.661000000000000E+008,-9.478503838181496E-003,8.768764138221741E-002,-9.699879884719849E-001,-1.662666350603104E-001,-9.478503838181496E-003,8.768764138221741E-002,-9.699879884719849E-001,-1.662666350603104E-001,
9.744666666666668E+008,1.646033488214016E-003,8.761681616306305E-002,-9.674141407012940E-001,-1.564186364412308E-001,1.646033488214016E-003,8.761681616306305E-002,-9.674141407012940E-001,-1.564186364412308E-001,
9.828333333333334E+008,1.095783244818449E-002,8.865174651145935E-002,-9.829596281051636E-001,-1.361976265907288E-001,1.095783244818449E-002,8.865174651145935E-002,-9.829596281051636E-001,-1.361976265907288E-001,
9.912000000000000E+008,2.146551385521889E-002,8.191300928592682E-002,-9.808664321899414E-001,-1.145245954394341E-001,2.146551385521889E-002,8.191300928592682E-002,-9.808664321899414E-001,-1.145245954394341E-001,
9.995666666666668E+008,2.531239762902260E-002,7.428947091102600E-002,-9.923840761184692E-001,-7.672620564699173E-002,2.531239762902260E-002,7.428947091102600E-002,-9.923840761184692E-001,-7.672620564699173E-002,
1.007933333333333E+009,2.876881510019302E-002,6.460670381784439E-002,-1.005506634712219E+000,-5.940583720803261E-002,2.876881510019302E-002,6.460670381784439E-002,-1.005506634712219E+000,-5.940583720803261E-002,
1.016300000000000E+009,2.267278730869293E-002,5.853179097175598E-002,-9.921363592147827E-001,-3.363904729485512E-002,2.267278730869293E-002,5.853179097175598E-002,-9.921363592147827E-001,-3.363904729485512E-002,
1.024666666666667E+009,1.486294995993376E-002,5.489550158381462E-002,-9.881045222282410E-001,-7.031253539025784E-003,1.486294995993376E-002,5.489550158381462E-002,-9.881045222282410E-001,-7.031253539025784E-003,
1.033033333333333E+009,9.945476427674294E-003,5.987935140728951E-002,-9.941596984863281E-001,1.989218220114708E-002,9.945476427674294E-003,5.987935140728951E-002,-9.941596984863281E-001,1.989218220114708E-002,
1.041400000000000E+009,3.701008856296539E-003,6.496656686067581E-002,-9.936503767967224E-001,4.147148132324219E-002,3.701008856296539E-003,6.496656686067581E-002,-9.936503767967224E-001,4.147148132324219E-002,
1.049766666666667E+009,7.472946308553219E-003,7.424774020910263E-002,-9.783247709274292E-001,7.664583623409271E-002,7.472946308553219E-003,7.424774020910263E-002,-9.783247709274292E-001,7.664583623409271E-002,
1.058133333333333E+009,1.224347017705441E-002,8.325139433145523E-002,-9.800262451171875E-001,9.909997880458832E-002,1.224347017705441E-002,8.325139433145523E-002,-9.800262451171875E-001,9.909997880458832E-002,
1.066500000000000E+009,2.398989163339138E-002,8.701959997415543E-002,-9.938795566558838E-001,1.332290917634964E-001,2.398989163339138E-002,8.701959997415543E-002,-9.938795566558838E-001,1.332290917634964E-001,
1.074866666666667E+009,3.801689669489861E-002,8.513581752777100E-002,-9.881308674812317E-001,1.530778855085373E-001,3.801689669489861E-002,8.513581752777100E-002,-9.881308674812317E-001,1.530778855085373E-001,
1.083233333333334E+009,4.679661989212036E-002,7.675264775753021E-002,-9.712879657745361E-001,1.731864362955093E-001,4.679661989212036E-002,7.675264775753021E-002,-9.712879657745361E-001,1.731864362955093E-001,
1.091600000000000E+009,5.315993353724480E-002,6.562072783708572E-002,-9.530215263366699E-001,1.935685873031616E-001,5.315993353724480E-002,6.562072783708572E-002,-9.530215263366699E-001,1.935685873031616E-001,
1.099966666666667E+009,5.210882425308228E-002,5.216657742857933E-002,-9.483035802841187E-001,2.318288087844849E-001,5.210882425308228E-002,5.216657742857933E-002,-9.483035802841187E-001,2.318288087844849E-001,
1.108333333333334E+009,4.377008229494095E-002,4.450843483209610E-002,-9.486705660820007E-001,2.402644455432892E-001,4.377008229494095E-002,4.450843483209610E-002,-9.486705660820007E-001,2.402644455432892E-001,
1.116700000000000E+009,3.326242789626122E-002,4.159330204129219E-002,-9.405212402343750E-001,2.737483084201813E-001,3.326242789626122E-002,4.159330204129219E-002,-9.405212402343750E-001,2.737483084201813E-001,
1.125066666666667E+009,2.235462330281735E-002,4.644745588302612E-002,-9.402776360511780E-001,2.909441590309143E-001,2.235462330281735E-002,4.644745588302612E-002,-9.402776360511780E-001,2.909441590309143E-001,
1.133433333333334E+009,1.512705441564322E-002,5.654220655560494E-002,-9.367363452911377E-001,3.363060355186462E-001,1.512705441564322E-002,5.654220655560494E-002,-9.367363452911377E-001,3.363060355186462E-001,
1.141800000000000E+009,1.457226648926735E-002,6.995934993028641E-002,-9.144486784934998E-001,3.498990833759308E-001,1.457226648926735E-002,6.995934993028641E-002,-9.144486784934998E-001,3.498990833759308E-001,
1.150166666666667E+009,2.429205179214478E-002,8.373767882585526E-002,-9.044854640960693E-001,3.501057028770447E-001,2.429205179214478E-002,8.373767882585526E-002,-9.044854640960693E-001,3.501057028770447E-001,
1.158533333333334E+009,4.100011661648750E-002,9.025656431913376E-002,-8.959570527076721E-001,3.898200690746307E-001,4.100011661648750E-002,9.025656431913376E-002,-8.959570527076721E-001,3.898200690746307E-001,
1.166900000000000E+009,6.046832725405693E-002,8.925589174032211E-002,-8.794467449188232E-001,4.102593362331390E-001,6.046832725405693E-002,8.925589174032211E-002,-8.794467449188232E-001,4.102593362331390E-001,
1.175266666666667E+009,7.632622122764587E-002,7.751049101352692E-002,-8.731088638305664E-001,4.395409226417542E-001,7.632622122764587E-002,7.751049101352692E-002,-8.731088638305664E-001,4.395409226417542E-001,
1.183633333333334E+009,8.811968564987183E-002,6.215133145451546E-002,-8.712708950042725E-001,4.518702030181885E-001,8.811968564987183E-002,6.215133145451546E-002,-8.712708950042725E-001,4.518702030181885E-001,
1.192000000000000E+009,8.768185973167419E-002,4.321844503283501E-002,-8.587395548820496E-001,4.733058214187622E-001,8.768185973167419E-002,4.321844503283501E-002,-8.587395548820496E-001,4.733058214187622E-001,
1.200366666666667E+009,7.781214267015457E-002,2.688547037541866E-002,-8.461295366287231E-001,4.944397509098053E-001,7.781214267015457E-002,2.688547037541866E-002,-8.461295366287231E-001,4.944397509098053E-001,
1.208733333333334E+009,6.259019672870636E-002,1.851961202919483E-002,-8.389921188354492E-001,5.366027355194092E-001,6.259019672870636E-002,1.851961202919483E-002,-8.389921188354492E-001,5.366027355194092E-001,
1.217100000000000E+009,4.686246067285538E-002,2.028819546103478E-002,-8.352479338645935E-001,5.473899841308594E-001,4.686246067285538E-002,2.028819546103478E-002,-8.352479338645935E-001,5.473899841308594E-001,
1.225466666666667E+009,3.498836979269981E-002,3.160177171230316E-002,-8.011021614074707E-001,5.709631443023682E-001,3.498836979269981E-002,3.160177171230316E-002,-8.011021614074707E-001,5.709631443023682E-001,
1.233833333333334E+009,3.136371076107025E-002,4.847436398267746E-002,-7.955593466758728E-001,5.831539630889893E-001,3.136371076107025E-002,4.847436398267746E-002,-7.955593466758728E-001,5.831539630889893E-001,
1.242200000000000E+009,4.056002944707871E-002,6.222357228398323E-002,-7.698755264282227E-001,6.165400147438049E-001,4.056002944707871E-002,6.222357228398323E-002,-7.698755264282227E-001,6.165400147438049E-001,
1.250566666666667E+009,5.447120591998100E-002,7.148933410644531E-002,-7.467284798622131E-001,6.200496554374695E-001,5.447120591998100E-002,7.148933410644531E-002,-7.467284798622131E-001,6.200496554374695E-001,
1.258933333333334E+009,7.497013360261917E-002,7.062602043151856E-002,-7.414035797119141E-001,6.423700451850891E-001,7.497013360261917E-002,7.062602043151856E-002,-7.414035797119141E-001,6.423700451850891E-001,
1.267300000000000E+009,9.438339620828629E-002,5.874128267168999E-002,-7.217490673065186E-001,6.561198830604553E-001,9.438339620828629E-002,5.874128267168999E-002,-7.217490673065186E-001,6.561198830604553E-001,
1.275666666666667E+009,1.028848066926003E-001,4.013312235474587E-002,-7.096064090728760E-001,6.630681157112122E-001,1.028848066926003E-001,4.013312235474587E-002,-7.096064090728760E-001,6.630681157112122E-001,
1.284033333333334E+009,1.045978888869286E-001,1.868799328804016E-002,-6.928561329841614E-001,7.054544091224670E-001,1.045978888869286E-001,1.868799328804016E-002,-6.928561329841614E-001,7.054544091224670E-001,
1.292400000000000E+009,9.397881478071213E-002,1.316348207183182E-004,-6.815445423126221E-001,7.097800374031067E-001,9.397881478071213E-002,1.316348207183182E-004,-6.815445423126221E-001,7.097800374031067E-001,
1.300766666666667E+009,7.431565970182419E-002,-7.821375504136086E-003,-6.582656502723694E-001,7.329643964767456E-001,7.431565970182419E-002,-7.821375504136086E-003,-6.582656502723694E-001,7.329643964767456E-001,
1.309133333333334E+009,5.424053594470024E-002,-5.861541256308556E-003,-6.329340338706970E-001,7.474405169487000E-001,5.424053594470024E-002,-5.861541256308556E-003,-6.329340338706970E-001,7.474405169487000E-001,
1.317500000000000E+009,4.037947207689285E-002,6.568441633135080E-003,-6.190131902694702E-001,7.770509719848633E-001,4.037947207689285E-002,6.568441633135080E-003,-6.190131902694702E-001,7.770509719848633E-001,
1.325866666666667E+009,3.654690459370613E-002,2.379044704139233E-002,-6.003860831260681E-001,7.923215031623840E-001,3.654690459370613E-002,2.379044704139233E-002,-6.003860831260681E-001,7.923215031623840E-001,
1.334233333333334E+009,4.555026069283485E-002,4.085204005241394E-002,-5.808287858963013E-001,7.982683181762695E-001,4.555026069283485E-002,4.085204005241394E-002,-5.808287858963013E-001,7.982683181762695E-001,
1.342600000000000E+009,6.163673475384712E-002,4.888136312365532E-002,-5.624274611473084E-001,8.143444061279297E-001,6.163673475384712E-002,4.888136312365532E-002,-5.624274611473084E-001,8.143444061279297E-001,
1.350966666666667E+009,8.197075873613358E-002,4.493203759193420E-002,-5.357875823974609E-001,8.256450891494751E-001,8.197075873613358E-002,4.493203759193420E-002,-5.357875823974609E-001,8.256450891494751E-001,
1.359333333333334E+009,9.676472842693329E-002,3.025389462709427E-002,-5.241515040397644E-001,8.252892494201660E-001,9.676472842693329E-002,3.025389462709427E-002,-5.241515040397644E-001,8.252892494201660E-001,
1.367700000000000E+009,1.018554568290710E-001,9.880065917968750E-003,-4.895913004875183E-001,8.436852097511292E-001,1.018554568290710E-001,9.880065917968750E-003,-4.895913004875183E-001,8.436852097511292E-001,
1.376066666666667E+009,9.780563414096832E-002,-1.259911339730024E-002,-4.740845561027527E-001,8.530281186103821E-001,9.780563414096832E-002,-1.259911339730024E-002,-4.740845561027527E-001,8.530281186103821E-001,
1.384433333333334E+009,8.023362606763840E-002,-2.769737876951695E-002,-4.587120115756989E-001,8.824302554130554E-001,8.023362606763840E-002,-2.769737876951695E-002,-4.587120115756989E-001,8.824302554130554E-001,
1.392800000000000E+009,5.959468334913254E-002,-2.960412949323654E-002,-4.370712041854858E-001,8.921723365783691E-001,5.959468334913254E-002,-2.960412949323654E-002,-4.370712041854858E-001,8.921723365783691E-001,
1.401166666666667E+009,3.956916183233261E-002,-2.156898193061352E-002,-4.100968539714813E-001,8.981285095214844E-001,3.956916183233261E-002,-2.156898193061352E-002,-4.100968539714813E-001,8.981285095214844E-001,
1.409533333333334E+009,2.676864154636860E-002,-3.991977777332068E-003,-3.805041611194611E-001,9.123084545135498E-001,2.676864154636860E-002,-3.991977777332068E-003,-3.805041611194611E-001,9.123084545135498E-001,
1.417900000000000E+009,2.860928885638714E-002,1.940152794122696E-002,-3.616059720516205E-001,9.085848927497864E-001,2.860928885638714E-002,1.940152794122696E-002,-3.616059720516205E-001,9.085848927497864E-001,
1.426266666666667E+009,4.015664011240006E-002,3.553546220064163E-002,-3.225710391998291E-001,9.328665733337402E-001,4.015664011240006E-002,3.553546220064163E-002,-3.225710391998291E-001,9.328665733337402E-001,
1.434633333333334E+009,6.109726801514626E-002,4.309625551104546E-002,-3.132350146770477E-001,9.283618330955505E-001,6.109726801514626E-002,4.309625551104546E-002,-3.132350146770477E-001,9.283618330955505E-001,
1.443000000000000E+009,8.146286755800247E-002,3.914983198046684E-002,-2.892953157424927E-001,9.352478384971619E-001,8.146286755800247E-002,3.914983198046684E-002,-2.892953157424927E-001,9.352478384971619E-001,
1.451366666666667E+009,9.687401354312897E-002,2.238853089511395E-002,-2.627687752246857E-001,9.347003698348999E-001,9.687401354312897E-002,2.238853089511395E-002,-2.627687752246857E-001,9.347003698348999E-001,
1.459733333333334E+009,1.028409525752068E-001,1.365766976960003E-003,-2.361496835947037E-001,9.610892534255981E-001,1.028409525752068E-001,1.365766976960003E-003,-2.361496835947037E-001,9.610892534255981E-001,
