% Version 1.00
%
%freq[Hz],re:Trc1_S11,im:Trc1_S11,re:Trc2_S21,im:Trc2_S21,re:Trc3_S11,im:Trc3_S11,re:Trc4_S21,im:Trc4_S21,
6.900000000000000E+008,-4.585285484790802E-002,3.805894032120705E-002,-4.973626732826233E-001,-8.508371710777283E-001,-4.585285484790802E-002,3.805894032120705E-002,-4.973626732826233E-001,-8.508371710777283E-001,
6.983666666666666E+008,-3.695212304592133E-002,3.798046335577965E-002,-5.276470780372620E-001,-8.358712196350098E-001,-3.695212304592133E-002,3.798046335577965E-002,-5.276470780372620E-001,-8.358712196350098E-001,
7.067333333333334E+008,-3.117745369672775E-002,3.389021754264832E-002,-5.513713955879211E-001,-8.169361352920532E-001,-3.117745369672775E-002,3.389021754264832E-002,-5.513713955879211E-001,-8.169361352920532E-001,
7.151000000000000E+008,-3.174590691924095E-002,2.563273720443249E-002,-5.853626132011414E-001,-8.158531785011292E-001,-3.174590691924095E-002,2.563273720443249E-002,-5.853626132011414E-001,-8.158531785011292E-001,
7.234666666666666E+008,-3.341994434595108E-002,2.086839266121388E-002,-5.981342196464539E-001,-7.992295622825623E-001,-3.341994434595108E-002,2.086839266121388E-002,-5.981342196464539E-001,-7.992295622825623E-001,
7.318333333333334E+008,-4.106661304831505E-002,1.806654036045075E-002,-6.201160550117493E-001,-7.835199832916260E-001,-4.106661304831505E-002,1.806654036045075E-002,-6.201160550117493E-001,-7.835199832916260E-001,
7.402000000000000E+008,-4.687357693910599E-002,2.036038413643837E-002,-6.316975951194763E-001,-7.530378103256226E-001,-4.687357693910599E-002,2.036038413643837E-002,-6.316975951194763E-001,-7.530378103256226E-001,
7.485666666666666E+008,-5.272196605801582E-002,2.723923139274120E-002,-6.556155681610107E-001,-7.427708506584168E-001,-5.272196605801582E-002,2.723923139274120E-002,-6.556155681610107E-001,-7.427708506584168E-001,
7.569333333333334E+008,-5.644745752215385E-002,3.698410093784332E-002,-6.796602010726929E-001,-7.329857945442200E-001,-5.644745752215385E-002,3.698410093784332E-002,-6.796602010726929E-001,-7.329857945442200E-001,
7.653000000000000E+008,-5.095878615975380E-002,4.624367877840996E-002,-6.895362138748169E-001,-7.045903801918030E-001,-5.095878615975380E-002,4.624367877840996E-002,-6.895362138748169E-001,-7.045903801918030E-001,
7.736666666666666E+008,-4.409705102443695E-002,5.248556286096573E-002,-6.952142715454102E-001,-7.083153128623962E-001,-4.409705102443695E-002,5.248556286096573E-002,-6.952142715454102E-001,-7.083153128623962E-001,
7.820333333333334E+008,-3.555162250995636E-002,5.637313425540924E-002,-7.295091748237610E-001,-6.770089864730835E-001,-3.555162250995636E-002,5.637313425540924E-002,-7.295091748237610E-001,-6.770089864730835E-001,
7.904000000000000E+008,-2.545554563403130E-002,5.536380410194397E-002,-7.407776713371277E-001,-6.602836251258850E-001,-2.545554563403130E-002,5.536380410194397E-002,-7.407776713371277E-001,-6.602836251258850E-001,
7.987666666666666E+008,-2.061816118657589E-002,5.038392171263695E-002,-7.499140501022339E-001,-6.452341675758362E-001,-2.061816118657589E-002,5.038392171263695E-002,-7.499140501022339E-001,-6.452341675758362E-001,
8.071333333333334E+008,-1.911787874996662E-002,4.301512986421585E-002,-7.739170789718628E-001,-6.096829771995544E-001,-1.911787874996662E-002,4.301512986421585E-002,-7.739170789718628E-001,-6.096829771995544E-001,
8.155000000000000E+008,-2.241300418972969E-002,3.638278320431709E-002,-7.996283173561096E-001,-6.007225513458252E-001,-2.241300418972969E-002,3.638278320431709E-002,-7.996283173561096E-001,-6.007225513458252E-001,
8.238666666666666E+008,-2.969989180564880E-002,3.430866822600365E-002,-8.031229376792908E-001,-5.743771195411682E-001,-2.969989180564880E-002,3.430866822600365E-002,-8.031229376792908E-001,-5.743771195411682E-001,
8.322333333333334E+008,-3.483061119914055E-002,3.579084947705269E-002,-8.169562816619873E-001,-5.583359599113464E-001,-3.483061119914055E-002,3.579084947705269E-002,-8.169562816619873E-001,-5.583359599113464E-001,
8.406000000000000E+008,-3.973733261227608E-002,3.887905925512314E-002,-8.191745281219482E-001,-5.385154485702515E-001,-3.973733261227608E-002,3.887905925512314E-002,-8.191745281219482E-001,-5.385154485702515E-001,
8.489666666666668E+008,-4.183428734540939E-002,5.017783492803574E-002,-8.361371755599976E-001,-5.071772933006287E-001,-4.183428734540939E-002,5.017783492803574E-002,-8.361371755599976E-001,-5.071772933006287E-001,
8.573333333333334E+008,-3.917191177606583E-002,5.743931233882904E-002,-8.404420018196106E-001,-4.789814352989197E-001,-3.917191177606583E-002,5.743931233882904E-002,-8.404420018196106E-001,-4.789814352989197E-001,
8.657000000000000E+008,-3.368379548192024E-002,6.532875448465347E-002,-8.681389689445496E-001,-4.795328080654144E-001,-3.368379548192024E-002,6.532875448465347E-002,-8.681389689445496E-001,-4.795328080654144E-001,
8.740666666666668E+008,-2.406087145209312E-002,6.945820897817612E-002,-8.759605288505554E-001,-4.593258202075958E-001,-2.406087145209312E-002,6.945820897817612E-002,-8.759605288505554E-001,-4.593258202075958E-001,
8.824333333333334E+008,-1.668930798768997E-002,7.092409580945969E-002,-8.894751071929932E-001,-4.312739372253418E-001,-1.668930798768997E-002,7.092409580945969E-002,-8.894751071929932E-001,-4.312739372253418E-001,
8.908000000000000E+008,-8.244192227721214E-003,6.789542734622955E-002,-9.072251319885254E-001,-4.114452004432678E-001,-8.244192227721214E-003,6.789542734622955E-002,-9.072251319885254E-001,-4.114452004432678E-001,
8.991666666666668E+008,-2.377671655267477E-003,6.130217388272286E-002,-9.064157605171204E-001,-3.824252188205719E-001,-2.377671655267477E-003,6.130217388272286E-002,-9.064157605171204E-001,-3.824252188205719E-001,
9.075333333333334E+008,-2.241314621642232E-003,5.409397557377815E-002,-9.223106503486633E-001,-3.641850948333740E-001,-2.241314621642232E-003,5.409397557377815E-002,-9.223106503486633E-001,-3.641850948333740E-001,
9.159000000000000E+008,-5.924333352595568E-003,4.835987091064453E-002,-9.404751062393189E-001,-3.379848301410675E-001,-5.924333352595568E-003,4.835987091064453E-002,-9.404751062393189E-001,-3.379848301410675E-001,
9.242666666666668E+008,-1.277410797774792E-002,4.833410307765007E-002,-9.324306249618530E-001,-3.148570060729981E-001,-1.277410797774792E-002,4.833410307765007E-002,-9.324306249618530E-001,-3.148570060729981E-001,
9.326333333333334E+008,-1.775828562676907E-002,5.066751316189766E-002,-9.516131877899170E-001,-3.045006990432739E-001,-1.775828562676907E-002,5.066751316189766E-002,-9.516131877899170E-001,-3.045006990432739E-001,
9.410000000000000E+008,-2.187728323042393E-002,5.478900671005249E-002,-9.571523666381836E-001,-2.613683640956879E-001,-2.187728323042393E-002,5.478900671005249E-002,-9.571523666381836E-001,-2.613683640956879E-001,
9.493666666666668E+008,-2.318626642227173E-002,6.399713456630707E-002,-9.604043364524841E-001,-2.348693907260895E-001,-2.318626642227173E-002,6.399713456630707E-002,-9.604043364524841E-001,-2.348693907260895E-001,
9.577333333333334E+008,-1.919965445995331E-002,7.359462976455689E-002,-9.690811038017273E-001,-2.203473895788193E-001,-1.919965445995331E-002,7.359462976455689E-002,-9.690811038017273E-001,-2.203473895788193E-001,
9.661000000000000E+008,-1.091428101062775E-002,8.043518662452698E-002,-9.697685241699219E-001,-1.769954562187195E-001,-1.091428101062775E-002,8.043518662452698E-002,-9.697685241699219E-001,-1.769954562187195E-001,
9.744666666666668E+008,-1.203806823468767E-005,7.979388535022736E-002,-9.688779115676880E-001,-1.694010794162750E-001,-1.203806823468767E-005,7.979388535022736E-002,-9.688779115676880E-001,-1.694010794162750E-001,
9.828333333333334E+008,9.128582663834095E-003,8.075480908155441E-002,-9.857003092765808E-001,-1.495053470134735E-001,9.128582663834095E-003,8.075480908155441E-002,-9.857003092765808E-001,-1.495053470134735E-001,
9.912000000000000E+008,1.923274993896484E-002,7.425642758607864E-002,-9.817245602607727E-001,-1.256616115570068E-001,1.923274993896484E-002,7.425642758607864E-002,-9.817245602607727E-001,-1.256616115570068E-001,
9.995666666666668E+008,2.272806502878666E-002,6.665450334548950E-002,-9.951762557029724E-001,-9.055054187774658E-002,2.272806502878666E-002,6.665450334548950E-002,-9.951762557029724E-001,-9.055054187774658E-002,
1.007933333333333E+009,2.682332694530487E-002,5.749689787626267E-002,-1.011576175689697E+000,-6.726741045713425E-002,2.682332694530487E-002,5.749689787626267E-002,-1.011576175689697E+000,-6.726741045713425E-002,
1.016300000000000E+009,2.050695568323135E-002,5.097125843167305E-002,-9.968026280403137E-001,-4.855234175920487E-002,2.050695568323135E-002,5.097125843167305E-002,-9.968026280403137E-001,-4.855234175920487E-002,
1.024666666666667E+009,1.282390579581261E-002,4.732416197657585E-002,-9.924874305725098E-001,-2.012716792523861E-002,1.282390579581261E-002,4.732416197657585E-002,-9.924874305725098E-001,-2.012716792523861E-002,
1.033033333333333E+009,7.203880697488785E-003,5.239420011639595E-002,-1.000005483627319E+000,7.410102523863316E-003,7.203880697488785E-003,5.239420011639595E-002,-1.000005483627319E+000,7.410102523863316E-003,
1.041400000000000E+009,1.604389981366694E-004,5.655779689550400E-002,-1.004237771034241E+000,2.430102415382862E-002,1.604389981366694E-004,5.655779689550400E-002,-1.004237771034241E+000,2.430102415382862E-002,
1.049766666666667E+009,3.615793073549867E-003,6.595931202173233E-002,-9.869609475135803E-001,6.293907761573792E-002,3.615793073549867E-003,6.595931202173233E-002,-9.869609475135803E-001,6.293907761573792E-002,
1.058133333333333E+009,8.153674192726612E-003,7.529681921005249E-002,-9.857116937637329E-001,8.529230952262878E-002,8.153674192726612E-003,7.529681921005249E-002,-9.857116937637329E-001,8.529230952262878E-002,
1.066500000000000E+009,1.935760676860809E-002,7.929189503192902E-002,-9.985011816024780E-001,1.194257885217667E-001,1.935760676860809E-002,7.929189503192902E-002,-9.985011816024780E-001,1.194257885217667E-001,
1.074866666666667E+009,3.318061307072640E-002,7.754093408584595E-002,-9.994151592254639E-001,1.407209485769272E-001,3.318061307072640E-002,7.754093408584595E-002,-9.994151592254639E-001,1.407209485769272E-001,
1.083233333333334E+009,4.150551557540894E-002,6.967233121395111E-002,-9.743739962577820E-001,1.555153131484985E-001,4.150551557540894E-002,6.967233121395111E-002,-9.743739962577820E-001,1.555153131484985E-001,
1.091600000000000E+009,4.759595543146133E-002,5.847269669175148E-002,-9.593092799186707E-001,1.790176033973694E-001,4.759595543146133E-002,5.847269669175148E-002,-9.593092799186707E-001,1.790176033973694E-001,
1.099966666666667E+009,4.645191133022308E-002,4.528535902500153E-002,-9.605209231376648E-001,2.198071628808975E-001,4.645191133022308E-002,4.528535902500153E-002,-9.605209231376648E-001,2.198071628808975E-001,
1.108333333333334E+009,3.876635804772377E-002,3.695504367351532E-002,-9.497765302658081E-001,2.279312908649445E-001,3.876635804772377E-002,3.695504367351532E-002,-9.497765302658081E-001,2.279312908649445E-001,
1.116700000000000E+009,2.851072512567043E-002,3.412858024239540E-002,-9.478523731231690E-001,2.588921785354614E-001,2.851072512567043E-002,3.412858024239540E-002,-9.478523731231690E-001,2.588921785354614E-001,
1.125066666666667E+009,1.676868274807930E-002,3.868987038731575E-002,-9.482144117355347E-001,2.784570157527924E-001,1.676868274807930E-002,3.868987038731575E-002,-9.482144117355347E-001,2.784570157527924E-001,
1.133433333333334E+009,9.491413831710815E-003,4.824487864971161E-002,-9.458720088005066E-001,3.237396776676178E-001,9.491413831710815E-003,4.824487864971161E-002,-9.458720088005066E-001,3.237396776676178E-001,
1.141800000000000E+009,7.473440840840340E-003,6.182218715548515E-002,-9.261076450347900E-001,3.368497490882874E-001,7.473440840840340E-003,6.182218715548515E-002,-9.261076450347900E-001,3.368497490882874E-001,
1.150166666666667E+009,1.697612553834915E-002,7.603400945663452E-002,-9.131197333335877E-001,3.369285166263580E-001,1.697612553834915E-002,7.603400945663452E-002,-9.131197333335877E-001,3.369285166263580E-001,
1.158533333333334E+009,3.311684355139732E-002,8.313024789094925E-002,-9.065109491348267E-001,3.771308660507202E-001,3.311684355139732E-002,8.313024789094925E-002,-9.065109491348267E-001,3.771308660507202E-001,
1.166900000000000E+009,5.234073102474213E-002,8.290171623229981E-002,-8.911343812942505E-001,3.996844887733460E-001,5.234073102474213E-002,8.290171623229981E-002,-8.911343812942505E-001,3.996844887733460E-001,
1.175266666666667E+009,6.760534644126892E-002,7.186131179332733E-002,-8.843136429786682E-001,4.263316094875336E-001,6.760534644126892E-002,7.186131179332733E-002,-8.843136429786682E-001,4.263316094875336E-001,
1.183633333333334E+009,7.967473566532135E-002,5.656337738037109E-002,-8.800675272941589E-001,4.424244165420532E-001,7.967473566532135E-002,5.656337738037109E-002,-8.800675272941589E-001,4.424244165420532E-001,
1.192000000000000E+009,7.913225144147873E-002,3.839968144893646E-002,-8.694094419479370E-001,4.618894159793854E-001,7.913225144147873E-002,3.839968144893646E-002,-8.694094419479370E-001,4.618894159793854E-001,
1.200366666666667E+009,6.992299109697342E-002,2.157782576978207E-002,-8.576622009277344E-001,4.847497344017029E-001,6.992299109697342E-002,2.157782576978207E-002,-8.576622009277344E-001,4.847497344017029E-001,
1.208733333333334E+009,5.494250357151032E-002,1.247113849967718E-002,-8.456763625144959E-001,5.210346579551697E-001,5.494250357151032E-002,1.247113849967718E-002,-8.456763625144959E-001,5.210346579551697E-001,
1.217100000000000E+009,3.928793594241142E-002,1.436373312026262E-002,-8.474791646003723E-001,5.378843545913696E-001,3.928793594241142E-002,1.436373312026262E-002,-8.474791646003723E-001,5.378843545913696E-001,
1.225466666666667E+009,2.658788114786148E-002,2.516218088567257E-002,-8.131526112556458E-001,5.618573427200317E-001,2.658788114786148E-002,2.516218088567257E-002,-8.131526112556458E-001,5.618573427200317E-001,
1.233833333333334E+009,2.246282808482647E-002,4.183346033096314E-002,-8.087522387504578E-001,5.735602974891663E-001,2.246282808482647E-002,4.183346033096314E-002,-8.087522387504578E-001,5.735602974891663E-001,
1.242200000000000E+009,3.101385571062565E-002,5.570778623223305E-002,-7.823787927627564E-001,6.047148704528809E-001,3.101385571062565E-002,5.570778623223305E-002,-7.823787927627564E-001,6.047148704528809E-001,
1.250566666666667E+009,4.339859262108803E-002,6.604507565498352E-002,-7.601161003112793E-001,6.165933012962341E-001,4.339859262108803E-002,6.604507565498352E-002,-7.601161003112793E-001,6.165933012962341E-001,
1.258933333333334E+009,6.401502341032028E-002,6.632713228464127E-002,-7.565585970878601E-001,6.343412995338440E-001,6.401502341032028E-002,6.632713228464127E-002,-7.565585970878601E-001,6.343412995338440E-001,
1.267300000000000E+009,8.374337106943131E-002,5.558508262038231E-002,-7.365559339523315E-001,6.477775573730469E-001,8.374337106943131E-002,5.558508262038231E-002,-7.365559339523315E-001,6.477775573730469E-001,
1.275666666666667E+009,9.333919733762741E-002,3.663529828190804E-002,-7.205412983894348E-001,6.642223000526428E-001,9.333919733762741E-002,3.663529828190804E-002,-7.205412983894348E-001,6.642223000526428E-001,
1.284033333333334E+009,9.481242299079895E-002,1.623504422605038E-002,-7.081745266914368E-001,6.986600160598755E-001,9.481242299079895E-002,1.623504422605038E-002,-7.081745266914368E-001,6.986600160598755E-001,
1.292400000000000E+009,8.383389562368393E-002,-2.798413159325719E-003,-6.990504860877991E-001,7.021677494049072E-001,8.383389562368393E-002,-2.798413159325719E-003,-6.990504860877991E-001,7.021677494049072E-001,
1.300766666666667E+009,6.486434489488602E-002,-1.087086088955402E-002,-6.726147532463074E-001,7.248079180717468E-001,6.486434489488602E-002,-1.087086088955402E-002,-6.726147532463074E-001,7.248079180717468E-001,
1.309133333333334E+009,4.446583241224289E-002,-9.436842985451222E-003,-6.436926722526550E-001,7.408183813095093E-001,4.446583241224289E-002,-9.436842985451222E-003,-6.436926722526550E-001,7.408183813095093E-001,
1.317500000000000E+009,3.003057837486267E-002,2.704989397898316E-003,-6.346855759620667E-001,7.742387056350708E-001,3.003057837486267E-002,2.704989397898316E-003,-6.346855759620667E-001,7.742387056350708E-001,
1.325866666666667E+009,2.553051337599754E-002,1.996358856558800E-002,-6.190912723541260E-001,7.881630659103394E-001,2.553051337599754E-002,1.996358856558800E-002,-6.190912723541260E-001,7.881630659103394E-001,
1.334233333333334E+009,3.349351137876511E-002,3.731854632496834E-002,-5.951806306838989E-001,7.919329404830933E-001,3.349351137876511E-002,3.731854632496834E-002,-5.951806306838989E-001,7.919329404830933E-001,
1.342600000000000E+009,4.969747364521027E-002,4.634719714522362E-002,-5.776789188385010E-001,8.100234866142273E-001,4.969747364521027E-002,4.634719714522362E-002,-5.776789188385010E-001,8.100234866142273E-001,
1.350966666666667E+009,6.982605904340744E-002,4.320586100220680E-002,-5.546467304229736E-001,8.253684043884277E-001,6.982605904340744E-002,4.320586100220680E-002,-5.546467304229736E-001,8.253684043884277E-001,
1.359333333333334E+009,8.513258397579193E-002,2.994221448898315E-002,-5.424226522445679E-001,8.181157708168030E-001,8.513258397579193E-002,2.994221448898315E-002,-5.424226522445679E-001,8.181157708168030E-001,
1.367700000000000E+009,9.091302007436752E-002,9.879119694232941E-003,-5.053330659866333E-001,8.417459130287170E-001,9.091302007436752E-002,9.879119694232941E-003,-5.053330659866333E-001,8.417459130287170E-001,
1.376066666666667E+009,8.646252006292343E-002,-1.264589000493288E-002,-4.896220266819000E-001,8.490363955497742E-001,8.646252006292343E-002,-1.264589000493288E-002,-4.896220266819000E-001,8.490363955497742E-001,
1.384433333333334E+009,6.997301429510117E-002,-2.771207503974438E-002,-4.759607613086700E-001,8.833713531494141E-001,6.997301429510117E-002,-2.771207503974438E-002,-4.759607613086700E-001,8.833713531494141E-001,
1.392800000000000E+009,4.884139448404312E-002,-3.015216812491417E-002,-4.551143050193787E-001,8.875730633735657E-001,4.884139448404312E-002,-3.015216812491417E-002,-4.551143050193787E-001,8.875730633735657E-001,
1.401166666666667E+009,2.809668891131878E-002,-2.262374386191368E-002,-4.270895123481751E-001,8.950709104537964E-001,2.809668891131878E-002,-2.262374386191368E-002,-4.270895123481751E-001,8.950709104537964E-001,
1.409533333333334E+009,1.506210304796696E-002,-4.999928176403046E-003,-3.955466449260712E-001,9.108773469924927E-001,1.506210304796696E-002,-4.999928176403046E-003,-3.955466449260712E-001,9.108773469924927E-001,
1.417900000000000E+009,1.586207002401352E-002,1.799708604812622E-002,-3.780629038810730E-001,9.071360826492310E-001,1.586207002401352E-002,1.799708604812622E-002,-3.780629038810730E-001,9.071360826492310E-001,
1.426266666666667E+009,2.689437940716744E-002,3.524748235940933E-002,-3.374779224395752E-001,9.354853034019470E-001,2.689437940716744E-002,3.524748235940933E-002,-3.374779224395752E-001,9.354853034019470E-001,
1.434633333333334E+009,4.758432134985924E-002,4.366889595985413E-002,-3.303592801094055E-001,9.275788068771362E-001,4.758432134985924E-002,4.366889595985413E-002,-3.303592801094055E-001,9.275788068771362E-001,
1.443000000000000E+009,6.769726425409317E-002,4.016884416341782E-002,-3.079619407653809E-001,9.359328746795654E-001,6.769726425409317E-002,4.016884416341782E-002,-3.079619407653809E-001,9.359328746795654E-001,
1.451366666666667E+009,8.436004817485809E-002,2.452161535620689E-002,-2.818112671375275E-001,9.354619979858398E-001,8.436004817485809E-002,2.452161535620689E-002,-2.818112671375275E-001,9.354619979858398E-001,
1.459733333333334E+009,9.078882634639740E-002,3.775492776185274E-003,-2.563098967075348E-001,9.662139415740967E-001,9.078882634639740E-002,3.775492776185274E-003,-2.563098967075348E-001,9.662139415740967E-001,
