% Version 1.00
%
%freq[Hz],re:Trc1_S11,im:Trc1_S11,re:Trc2_S21,im:Trc2_S21,re:Trc3_S11,im:Trc3_S11,re:Trc4_S21,im:Trc4_S21,
6.900000000000000E+008,-4.540823772549629E-002,3.560984507203102E-002,-4.987263381481171E-001,-8.538684844970703E-001,-4.540823772549629E-002,3.560984507203102E-002,-4.987263381481171E-001,-8.538684844970703E-001,
6.983666666666666E+008,-3.735180199146271E-002,3.615285456180573E-002,-5.238612294197083E-001,-8.432058095932007E-001,-3.735180199146271E-002,3.615285456180573E-002,-5.238612294197083E-001,-8.432058095932007E-001,
7.067333333333334E+008,-3.101958334445953E-002,3.178736194968224E-002,-5.467339754104614E-001,-8.176180720329285E-001,-3.101958334445953E-002,3.178736194968224E-002,-5.467339754104614E-001,-8.176180720329285E-001,
7.151000000000000E+008,-3.012016229331493E-002,2.422979101538658E-002,-5.814741253852844E-001,-8.152405023574829E-001,-3.012016229331493E-002,2.422979101538658E-002,-5.814741253852844E-001,-8.152405023574829E-001,
7.234666666666666E+008,-3.151579946279526E-002,1.904899626970291E-002,-5.947622656822205E-001,-7.999227046966553E-001,-3.151579946279526E-002,1.904899626970291E-002,-5.947622656822205E-001,-7.999227046966553E-001,
7.318333333333334E+008,-3.851933032274246E-002,1.665016449987888E-002,-6.122438907623291E-001,-7.827727198600769E-001,-3.851933032274246E-002,1.665016449987888E-002,-6.122438907623291E-001,-7.827727198600769E-001,
7.402000000000000E+008,-4.463313147425652E-002,1.835523918271065E-002,-6.226783990859985E-001,-7.578746676445007E-001,-4.463313147425652E-002,1.835523918271065E-002,-6.226783990859985E-001,-7.578746676445007E-001,
7.485666666666666E+008,-5.012954398989677E-002,2.509629540145397E-002,-6.529217958450317E-001,-7.449213266372681E-001,-5.012954398989677E-002,2.509629540145397E-002,-6.529217958450317E-001,-7.449213266372681E-001,
7.569333333333334E+008,-5.441035330295563E-002,3.462212532758713E-002,-6.712235212326050E-001,-7.314603328704834E-001,-5.441035330295563E-002,3.462212532758713E-002,-6.712235212326050E-001,-7.314603328704834E-001,
7.653000000000000E+008,-4.958060756325722E-002,4.339111596345902E-002,-6.787117719650269E-001,-7.122938036918640E-001,-4.958060756325722E-002,4.339111596345902E-002,-6.787117719650269E-001,-7.122938036918640E-001,
7.736666666666666E+008,-4.382137581706047E-002,4.991943389177322E-002,-6.916329264640808E-001,-7.089282274246216E-001,-4.382137581706047E-002,4.991943389177322E-002,-6.916329264640808E-001,-7.089282274246216E-001,
7.820333333333334E+008,-3.559863567352295E-002,5.386631190776825E-002,-7.252469658851624E-001,-6.805215477943420E-001,-3.559863567352295E-002,5.386631190776825E-002,-7.252469658851624E-001,-6.805215477943420E-001,
7.904000000000000E+008,-2.586282417178154E-002,5.267211049795151E-002,-7.343864440917969E-001,-6.619039773941040E-001,-2.586282417178154E-002,5.267211049795151E-002,-7.343864440917969E-001,-6.619039773941040E-001,
7.987666666666666E+008,-2.149350941181183E-002,4.726081341505051E-002,-7.397300004959106E-001,-6.460794210433960E-001,-2.149350941181183E-002,4.726081341505051E-002,-7.397300004959106E-001,-6.460794210433960E-001,
8.071333333333334E+008,-1.913408190011978E-002,4.059388861060143E-002,-7.662569284439087E-001,-6.140904426574707E-001,-1.913408190011978E-002,4.059388861060143E-002,-7.662569284439087E-001,-6.140904426574707E-001,
8.155000000000000E+008,-2.173312194645405E-002,3.343709558248520E-002,-7.928032279014587E-001,-6.033035516738892E-001,-2.173312194645405E-002,3.343709558248520E-002,-7.928032279014587E-001,-6.033035516738892E-001,
8.238666666666666E+008,-2.801398746669292E-002,3.130999580025673E-002,-7.988437414169312E-001,-5.798737406730652E-001,-2.801398746669292E-002,3.130999580025673E-002,-7.988437414169312E-001,-5.798737406730652E-001,
8.322333333333334E+008,-3.327465429902077E-002,3.260048478841782E-002,-8.080818057060242E-001,-5.618556737899780E-001,-3.327465429902077E-002,3.260048478841782E-002,-8.080818057060242E-001,-5.618556737899780E-001,
8.406000000000000E+008,-3.799317032098770E-002,3.574436902999878E-002,-8.200320601463318E-001,-5.395547747612000E-001,-3.799317032098770E-002,3.574436902999878E-002,-8.200320601463318E-001,-5.395547747612000E-001,
8.489666666666668E+008,-3.983778879046440E-002,4.689120501279831E-002,-8.319727182388306E-001,-5.104510188102722E-001,-3.983778879046440E-002,4.689120501279831E-002,-8.319727182388306E-001,-5.104510188102722E-001,
8.573333333333334E+008,-3.811086714267731E-002,5.479563772678375E-002,-8.338857293128967E-001,-4.801964163780212E-001,-3.811086714267731E-002,5.479563772678375E-002,-8.338857293128967E-001,-4.801964163780212E-001,
8.657000000000000E+008,-3.321444988250732E-002,6.252177059650421E-002,-8.616747260093689E-001,-4.848041236400604E-001,-3.321444988250732E-002,6.252177059650421E-002,-8.616747260093689E-001,-4.848041236400604E-001,
8.740666666666668E+008,-2.455059811472893E-002,6.755939871072769E-002,-8.678331375122070E-001,-4.601880013942719E-001,-2.455059811472893E-002,6.755939871072769E-002,-8.678331375122070E-001,-4.601880013942719E-001,
8.824333333333334E+008,-1.673771254718304E-002,6.886005401611328E-002,-8.860763311386108E-001,-4.360564053058624E-001,-1.673771254718304E-002,6.886005401611328E-002,-8.860763311386108E-001,-4.360564053058624E-001,
8.908000000000000E+008,-8.913496509194374E-003,6.509131938219070E-002,-8.998202681541443E-001,-4.187432825565338E-001,-8.913496509194374E-003,6.509131938219070E-002,-8.998202681541443E-001,-4.187432825565338E-001,
8.991666666666668E+008,-3.598936833441258E-003,5.881921201944351E-002,-8.999208211898804E-001,-3.917039930820465E-001,-3.598936833441258E-003,5.881921201944351E-002,-8.999208211898804E-001,-3.917039930820465E-001,
9.075333333333334E+008,-3.221342107281089E-003,5.096751078963280E-002,-9.140768647193909E-001,-3.666250407695770E-001,-3.221342107281089E-003,5.096751078963280E-002,-9.140768647193909E-001,-3.666250407695770E-001,
9.159000000000000E+008,-5.828226450830698E-003,4.501295089721680E-002,-9.353431463241577E-001,-3.419105410575867E-001,-5.828226450830698E-003,4.501295089721680E-002,-9.353431463241577E-001,-3.419105410575867E-001,
9.242666666666668E+008,-1.233291532844305E-002,4.505227133631706E-002,-9.268988966941834E-001,-3.200965821743012E-001,-1.233291532844305E-002,4.505227133631706E-002,-9.268988966941834E-001,-3.200965821743012E-001,
9.326333333333334E+008,-1.715129613876343E-002,4.717271029949188E-002,-9.431079030036926E-001,-3.060932159423828E-001,-1.715129613876343E-002,4.717271029949188E-002,-9.431079030036926E-001,-3.060932159423828E-001,
9.410000000000000E+008,-2.109567448496819E-002,5.152691155672073E-002,-9.533758759498596E-001,-2.701806128025055E-001,-2.109567448496819E-002,5.152691155672073E-002,-9.533758759498596E-001,-2.701806128025055E-001,
9.493666666666668E+008,-2.265272475779057E-002,6.083508580923080E-002,-9.580919742584229E-001,-2.398624718189240E-001,-2.265272475779057E-002,6.083508580923080E-002,-9.580919742584229E-001,-2.398624718189240E-001,
9.577333333333334E+008,-1.925053633749485E-002,7.068843394517899E-002,-9.642966985702515E-001,-2.266308218240738E-001,-1.925053633749485E-002,7.068843394517899E-002,-9.642966985702515E-001,-2.266308218240738E-001,
9.661000000000000E+008,-1.085725426673889E-002,7.739794999361038E-002,-9.658990502357483E-001,-1.846731752157211E-001,-1.085725426673889E-002,7.739794999361038E-002,-9.658990502357483E-001,-1.846731752157211E-001,
9.744666666666668E+008,-6.023193127475679E-004,7.772237807512283E-002,-9.636400938034058E-001,-1.740665584802628E-001,-6.023193127475679E-004,7.772237807512283E-002,-9.636400938034058E-001,-1.740665584802628E-001,
9.828333333333334E+008,8.057949133217335E-003,7.865288853645325E-002,-9.791177511215210E-001,-1.543125212192535E-001,8.057949133217335E-003,7.865288853645325E-002,-9.791177511215210E-001,-1.543125212192535E-001,
9.912000000000000E+008,1.812918856739998E-002,7.200353592634201E-002,-9.767313599586487E-001,-1.324183195829392E-001,1.812918856739998E-002,7.200353592634201E-002,-9.767313599586487E-001,-1.324183195829392E-001,
9.995666666666668E+008,2.167671360075474E-002,6.392915546894074E-002,-9.893800616264343E-001,-9.532835334539414E-002,2.167671360075474E-002,6.392915546894074E-002,-9.893800616264343E-001,-9.532835334539414E-002,
1.007933333333333E+009,2.524534240365028E-002,5.425253883004189E-002,-1.002685904502869E+000,-7.786986231803894E-002,2.524534240365028E-002,5.425253883004189E-002,-1.002685904502869E+000,-7.786986231803894E-002,
1.016300000000000E+009,1.941307261586189E-002,4.815046489238739E-002,-9.889093637466431E-001,-5.172998830676079E-002,1.941307261586189E-002,4.815046489238739E-002,-9.889093637466431E-001,-5.172998830676079E-002,
1.024666666666667E+009,1.220831647515297E-002,4.423950240015984E-002,-9.846891760826111E-001,-2.598304301500320E-002,1.220831647515297E-002,4.423950240015984E-002,-9.846891760826111E-001,-2.598304301500320E-002,
1.033033333333333E+009,7.629556581377983E-003,4.885859414935112E-002,-9.913399219512940E-001,2.432151377433911E-004,7.629556581377983E-003,4.885859414935112E-002,-9.913399219512940E-001,2.432151377433911E-004,
1.041400000000000E+009,1.310107414610684E-003,5.382850766181946E-002,-9.909740090370178E-001,2.125515975058079E-002,1.310107414610684E-003,5.382850766181946E-002,-9.909740090370178E-001,2.125515975058079E-002,
1.049766666666667E+009,4.432318266481161E-003,6.337527185678482E-002,-9.769164919853210E-001,5.668434873223305E-002,4.432318266481161E-003,6.337527185678482E-002,-9.769164919853210E-001,5.668434873223305E-002,
1.058133333333333E+009,8.440831676125526E-003,7.252196967601776E-002,-9.789137244224548E-001,7.866847515106201E-002,8.440831676125526E-003,7.252196967601776E-002,-9.789137244224548E-001,7.866847515106201E-002,
1.066500000000000E+009,1.914077065885067E-002,7.687814533710480E-002,-9.937019348144531E-001,1.125106811523438E-001,1.914077065885067E-002,7.687814533710480E-002,-9.937019348144531E-001,1.125106811523438E-001,
1.074866666666667E+009,3.199421614408493E-002,7.579255104064941E-002,-9.874779582023621E-001,1.325900405645371E-001,3.199421614408493E-002,7.579255104064941E-002,-9.874779582023621E-001,1.325900405645371E-001,
1.083233333333334E+009,3.998148813843727E-002,6.780635565519333E-002,-9.710621237754822E-001,1.533428430557251E-001,3.998148813843727E-002,6.780635565519333E-002,-9.710621237754822E-001,1.533428430557251E-001,
1.091600000000000E+009,4.599896445870400E-002,5.720987543463707E-002,-9.539250731468201E-001,1.733421534299851E-001,4.599896445870400E-002,5.720987543463707E-002,-9.539250731468201E-001,1.733421534299851E-001,
1.099966666666667E+009,4.497406631708145E-002,4.359446465969086E-002,-9.493085145950317E-001,2.113464176654816E-001,4.497406631708145E-002,4.359446465969086E-002,-9.493085145950317E-001,2.113464176654816E-001,
1.108333333333334E+009,3.704411163926125E-002,3.533559665083885E-002,-9.493418335914612E-001,2.191197574138641E-001,3.704411163926125E-002,3.533559665083885E-002,-9.493418335914612E-001,2.191197574138641E-001,
1.116700000000000E+009,2.700228802859783E-002,3.161495178937912E-002,-9.423314332962036E-001,2.526524066925049E-001,2.700228802859783E-002,3.161495178937912E-002,-9.423314332962036E-001,2.526524066925049E-001,
1.125066666666667E+009,1.635118015110493E-002,3.576566278934479E-002,-9.431125521659851E-001,2.693128585815430E-001,1.635118015110493E-002,3.576566278934479E-002,-9.431125521659851E-001,2.693128585815430E-001,
1.133433333333334E+009,8.993995375931263E-003,4.519750550389290E-002,-9.407551884651184E-001,3.143577873706818E-001,8.993995375931263E-003,4.519750550389290E-002,-9.407551884651184E-001,3.143577873706818E-001,
1.141800000000000E+009,7.928621023893356E-003,5.842104181647301E-002,-9.180130362510681E-001,3.284218311309815E-001,7.928621023893356E-003,5.842104181647301E-002,-9.180130362510681E-001,3.284218311309815E-001,
1.150166666666667E+009,1.688301935791969E-002,7.275728136301041E-002,-9.094004034996033E-001,3.294287025928497E-001,1.688301935791969E-002,7.275728136301041E-002,-9.094004034996033E-001,3.294287025928497E-001,
1.158533333333334E+009,3.247066214680672E-002,8.003318309783936E-002,-9.023616313934326E-001,3.700662255287170E-001,3.247066214680672E-002,8.003318309783936E-002,-9.023616313934326E-001,3.700662255287170E-001,
1.166900000000000E+009,5.111105740070343E-002,8.042714744806290E-002,-8.857783675193787E-001,3.902663588523865E-001,5.111105740070343E-002,8.042714744806290E-002,-8.857783675193787E-001,3.902663588523865E-001,
1.175266666666667E+009,6.638566404581070E-002,7.012791931629181E-002,-8.803474903106690E-001,4.193775355815888E-001,6.638566404581070E-002,7.012791931629181E-002,-8.803474903106690E-001,4.193775355815888E-001,
1.183633333333334E+009,7.773198187351227E-002,5.579949542880058E-002,-8.786585330963135E-001,4.314856529235840E-001,7.773198187351227E-002,5.579949542880058E-002,-8.786585330963135E-001,4.314856529235840E-001,
1.192000000000000E+009,7.742661237716675E-002,3.721560165286064E-002,-8.659869432449341E-001,4.541791975498200E-001,7.742661237716675E-002,3.721560165286064E-002,-8.659869432449341E-001,4.541791975498200E-001,
1.200366666666667E+009,6.802851706743240E-002,2.063980139791966E-002,-8.532798290252686E-001,4.752000570297241E-001,6.802851706743240E-002,2.063980139791966E-002,-8.532798290252686E-001,4.752000570297241E-001,
1.208733333333334E+009,5.340762436389923E-002,1.142931729555130E-002,-8.466389775276184E-001,5.168135762214661E-001,5.340762436389923E-002,1.142931729555130E-002,-8.466389775276184E-001,5.168135762214661E-001,
1.217100000000000E+009,3.781347721815109E-002,1.204695925116539E-002,-8.428024053573608E-001,5.265091657638550E-001,3.781347721815109E-002,1.204695925116539E-002,-8.428024053573608E-001,5.265091657638550E-001,
1.225466666666667E+009,2.567711658775806E-002,2.222234010696411E-002,-8.106210231781006E-001,5.510478019714356E-001,2.567711658775806E-002,2.222234010696411E-002,-8.106210231781006E-001,5.510478019714356E-001,
1.233833333333334E+009,2.134300768375397E-002,3.833253309130669E-002,-8.060498833656311E-001,5.624373555183411E-001,2.134300768375397E-002,3.833253309130669E-002,-8.060498833656311E-001,5.624373555183411E-001,
1.242200000000000E+009,2.973800897598267E-002,5.262011289596558E-002,-7.810460925102234E-001,5.957770943641663E-001,2.973800897598267E-002,5.262011289596558E-002,-7.810460925102234E-001,5.957770943641663E-001,
1.250566666666667E+009,4.277519509196281E-002,6.296093761920929E-002,-7.596608400344849E-001,6.015083789825440E-001,4.277519509196281E-002,6.296093761920929E-002,-7.596608400344849E-001,6.015083789825440E-001,
1.258933333333334E+009,6.318589299917221E-002,6.362983584403992E-002,-7.541984319686890E-001,6.238831281661987E-001,6.318589299917221E-002,6.362983584403992E-002,-7.541984319686890E-001,6.238831281661987E-001,
1.267300000000000E+009,8.249515295028687E-002,5.353399366140366E-002,-7.355706095695496E-001,6.380643844604492E-001,8.249515295028687E-002,5.353399366140366E-002,-7.355706095695496E-001,6.380643844604492E-001,
1.275666666666667E+009,9.140900522470474E-002,3.610894083976746E-002,-7.230428457260132E-001,6.461877226829529E-001,9.140900522470474E-002,3.610894083976746E-002,-7.230428457260132E-001,6.461877226829529E-001,
1.284033333333334E+009,9.338832646608353E-002,1.534406375139952E-002,-7.068291306495667E-001,6.885870099067688E-001,9.338832646608353E-002,1.534406375139952E-002,-7.068291306495667E-001,6.885870099067688E-001,
1.292400000000000E+009,8.296226710081101E-002,-3.354914020746946E-003,-6.945117115974426E-001,6.918198466300964E-001,8.296226710081101E-002,-3.354914020746946E-003,-6.945117115974426E-001,6.918198466300964E-001,
1.300766666666667E+009,6.358361244201660E-002,-1.224407646805048E-002,-6.723880171775818E-001,7.159558534622192E-001,6.358361244201660E-002,-1.224407646805048E-002,-6.723880171775818E-001,7.159558534622192E-001,
1.309133333333334E+009,4.330186545848846E-002,-1.139387860894203E-002,-6.478655934333801E-001,7.301659584045410E-001,4.330186545848846E-002,-1.139387860894203E-002,-6.478655934333801E-001,7.301659584045410E-001,
1.317500000000000E+009,2.872059494256973E-002,-1.810357935028151E-004,-6.354432702064514E-001,7.606387734413147E-001,2.872059494256973E-002,-1.810357935028151E-004,-6.354432702064514E-001,7.606387734413147E-001,
1.325866666666667E+009,2.395744621753693E-002,1.617836020886898E-002,-6.160404682159424E-001,7.756795287132263E-001,2.395744621753693E-002,1.617836020886898E-002,-6.160404682159424E-001,7.756795287132263E-001,
1.334233333333334E+009,3.204770013689995E-002,3.352992236614227E-002,-5.977479219436646E-001,7.814933061599731E-001,3.204770013689995E-002,3.352992236614227E-002,-5.977479219436646E-001,7.814933061599731E-001,
1.342600000000000E+009,4.763702303171158E-002,4.262893646955490E-002,-5.803613662719727E-001,7.988526225090027E-001,4.763702303171158E-002,4.262893646955490E-002,-5.803613662719727E-001,7.988526225090027E-001,
1.350966666666667E+009,6.799840182065964E-002,4.017129912972450E-002,-5.539352297782898E-001,8.112374544143677E-001,6.799840182065964E-002,4.017129912972450E-002,-5.539352297782898E-001,8.112374544143677E-001,
1.359333333333334E+009,8.327383548021317E-002,2.716840244829655E-002,-5.408885478973389E-001,8.103893995285034E-001,8.327383548021317E-002,2.716840244829655E-002,-5.408885478973389E-001,8.103893995285034E-001,
1.367700000000000E+009,8.950022608041763E-002,7.949728518724442E-003,-5.074371099472046E-001,8.293193578720093E-001,8.950022608041763E-002,7.949728518724442E-003,-5.074371099472046E-001,8.293193578720093E-001,
1.376066666666667E+009,8.587428927421570E-002,-1.387977879494429E-002,-4.920912981033325E-001,8.387117981910706E-001,8.587428927421570E-002,-1.387977879494429E-002,-4.920912981033325E-001,8.387117981910706E-001,
1.384433333333334E+009,6.875046342611313E-002,-2.920894883573055E-002,-4.769257605075836E-001,8.691037297248840E-001,6.875046342611313E-002,-2.920894883573055E-002,-4.769257605075836E-001,8.691037297248840E-001,
1.392800000000000E+009,4.775871336460114E-002,-3.194077685475349E-002,-4.560437500476837E-001,8.772520422935486E-001,4.775871336460114E-002,-3.194077685475349E-002,-4.560437500476837E-001,8.772520422935486E-001,
1.401166666666667E+009,2.672380022704601E-002,-2.504837140440941E-002,-4.291531145572662E-001,8.844503760337830E-001,2.672380022704601E-002,-2.504837140440941E-002,-4.291531145572662E-001,8.844503760337830E-001,
1.409533333333334E+009,1.273822318762541E-002,-8.093032054603100E-003,-4.000817835330963E-001,8.989998102188110E-001,1.273822318762541E-002,-8.093032054603100E-003,-4.000817835330963E-001,8.989998102188110E-001,
1.417900000000000E+009,1.288587786257267E-002,1.468177046626806E-002,-3.809464871883392E-001,8.950451016426086E-001,1.288587786257267E-002,1.468177046626806E-002,-3.809464871883392E-001,8.950451016426086E-001,
1.426266666666667E+009,2.321364730596542E-002,3.135082870721817E-002,-3.443771600723267E-001,9.214289784431458E-001,2.321364730596542E-002,3.135082870721817E-002,-3.443771600723267E-001,9.214289784431458E-001,
1.434633333333334E+009,4.366736859083176E-002,3.975677862763405E-002,-3.349924981594086E-001,9.155376553535461E-001,4.366736859083176E-002,3.975677862763405E-002,-3.349924981594086E-001,9.155376553535461E-001,
1.443000000000000E+009,6.454324722290039E-002,3.722912073135376E-002,-3.107360005378723E-001,9.235874414443970E-001,6.454324722290039E-002,3.722912073135376E-002,-3.107360005378723E-001,9.235874414443970E-001,
1.451366666666667E+009,8.115773648023605E-002,2.198212407529354E-002,-2.847284674644470E-001,9.240745306015015E-001,8.115773648023605E-002,2.198212407529354E-002,-2.847284674644470E-001,9.240745306015015E-001,
1.459733333333334E+009,8.848939836025238E-002,2.080860547721386E-003,-2.594828307628632E-001,9.505380988121033E-001,8.848939836025238E-002,2.080860547721386E-003,-2.594828307628632E-001,9.505380988121033E-001,
