% Version 1.00
%
%freq[Hz],re:Trc1_S11,im:Trc1_S11,re:Trc2_S21,im:Trc2_S21,re:Trc3_S11,im:Trc3_S11,re:Trc4_S21,im:Trc4_S21,
6.900000000000000E+008,-4.909693077206612E-002,4.125247895717621E-002,-5.094402432441711E-001,-8.470534682273865E-001,-4.909693077206612E-002,4.125247895717621E-002,-5.094402432441711E-001,-8.470534682273865E-001,
6.983666666666666E+008,-4.094412922859192E-002,4.158594086766243E-002,-5.352550745010376E-001,-8.359628319740295E-001,-4.094412922859192E-002,4.158594086766243E-002,-5.352550745010376E-001,-8.359628319740295E-001,
7.067333333333334E+008,-3.530965000391007E-002,3.706727176904678E-002,-5.565640926361084E-001,-8.102119565010071E-001,-3.530965000391007E-002,3.706727176904678E-002,-5.565640926361084E-001,-8.102119565010071E-001,
7.151000000000000E+008,-3.497289493680000E-002,2.948075346648693E-002,-5.927948951721191E-001,-8.077428936958313E-001,-3.497289493680000E-002,2.948075346648693E-002,-5.927948951721191E-001,-8.077428936958313E-001,
7.234666666666666E+008,-3.711878508329392E-002,2.447038516402245E-002,-6.054223179817200E-001,-7.914535403251648E-001,-3.711878508329392E-002,2.447038516402245E-002,-6.054223179817200E-001,-7.914535403251648E-001,
7.318333333333334E+008,-4.453395679593086E-002,2.237806282937527E-002,-6.230656504631043E-001,-7.751426696777344E-001,-4.453395679593086E-002,2.237806282937527E-002,-6.230656504631043E-001,-7.751426696777344E-001,
7.402000000000000E+008,-5.071057006716728E-002,2.448874153196812E-002,-6.333974599838257E-001,-7.491480708122253E-001,-5.071057006716728E-002,2.448874153196812E-002,-6.333974599838257E-001,-7.491480708122253E-001,
7.485666666666666E+008,-5.588782951235771E-002,3.171373158693314E-002,-6.638669371604919E-001,-7.356022596359253E-001,-5.588782951235771E-002,3.171373158693314E-002,-6.638669371604919E-001,-7.356022596359253E-001,
7.569333333333334E+008,-5.949395895004273E-002,4.161795973777771E-002,-6.824584603309631E-001,-7.218123078346252E-001,-5.949395895004273E-002,4.161795973777771E-002,-6.824584603309631E-001,-7.218123078346252E-001,
7.653000000000000E+008,-5.374494940042496E-002,5.055267736315727E-002,-6.888666749000549E-001,-7.024626731872559E-001,-5.374494940042496E-002,5.055267736315727E-002,-6.888666749000549E-001,-7.024626731872559E-001,
7.736666666666666E+008,-4.717560857534409E-002,5.714735761284828E-002,-7.015928030014038E-001,-6.993532776832581E-001,-4.717560857534409E-002,5.714735761284828E-002,-7.015928030014038E-001,-6.993532776832581E-001,
7.820333333333334E+008,-3.836636617779732E-002,6.117002665996552E-002,-7.348993420600891E-001,-6.702132821083069E-001,-3.836636617779732E-002,6.117002665996552E-002,-7.348993420600891E-001,-6.702132821083069E-001,
7.904000000000000E+008,-2.829048410058022E-002,5.994219332933426E-002,-7.437183856964111E-001,-6.514738798141480E-001,-2.829048410058022E-002,5.994219332933426E-002,-7.437183856964111E-001,-6.514738798141480E-001,
7.987666666666666E+008,-2.402933873236179E-002,5.485137924551964E-002,-7.490444183349609E-001,-6.354165077209473E-001,-2.402933873236179E-002,5.485137924551964E-002,-7.490444183349609E-001,-6.354165077209473E-001,
8.071333333333334E+008,-2.222208678722382E-002,4.847294092178345E-002,-7.751599550247192E-001,-6.031717658042908E-001,-2.222208678722382E-002,4.847294092178345E-002,-7.751599550247192E-001,-6.031717658042908E-001,
8.155000000000000E+008,-2.518594637513161E-002,4.159138724207878E-002,-8.023952841758728E-001,-5.920193791389465E-001,-2.518594637513161E-002,4.159138724207878E-002,-8.023952841758728E-001,-5.920193791389465E-001,
8.238666666666666E+008,-3.186953440308571E-002,3.978980332612991E-002,-8.079630732536316E-001,-5.681115388870239E-001,-3.186953440308571E-002,3.978980332612991E-002,-8.079630732536316E-001,-5.681115388870239E-001,
8.322333333333334E+008,-3.737058490514755E-002,4.136038571596146E-002,-8.170791268348694E-001,-5.492415428161621E-001,-3.737058490514755E-002,4.136038571596146E-002,-8.170791268348694E-001,-5.492415428161621E-001,
8.406000000000000E+008,-4.191277176141739E-002,4.489153251051903E-002,-8.295359015464783E-001,-5.277622938156128E-001,-4.191277176141739E-002,4.489153251051903E-002,-8.295359015464783E-001,-5.277622938156128E-001,
8.489666666666668E+008,-4.316322878003120E-002,5.612868815660477E-002,-8.411366939544678E-001,-4.983771443367004E-001,-4.316322878003120E-002,5.612868815660477E-002,-8.411366939544678E-001,-4.983771443367004E-001,
8.573333333333334E+008,-4.071749001741409E-002,6.397037953138351E-002,-8.424326777458191E-001,-4.676393270492554E-001,-4.071749001741409E-002,6.397037953138351E-002,-8.424326777458191E-001,-4.676393270492554E-001,
8.657000000000000E+008,-3.519697114825249E-002,7.151128351688385E-002,-8.708568215370178E-001,-4.710231423377991E-001,-3.519697114825249E-002,7.151128351688385E-002,-8.708568215370178E-001,-4.710231423377991E-001,
8.740666666666668E+008,-2.576848864555359E-002,7.649181038141251E-002,-8.760449290275574E-001,-4.465926885604858E-001,-2.576848864555359E-002,7.649181038141251E-002,-8.760449290275574E-001,-4.465926885604858E-001,
8.824333333333334E+008,-1.733878441154957E-002,7.785814255475998E-002,-8.944561481475830E-001,-4.217107892036438E-001,-1.733878441154957E-002,7.785814255475998E-002,-8.944561481475830E-001,-4.217107892036438E-001,
8.908000000000000E+008,-9.227740578353405E-003,7.434201240539551E-002,-9.084782600402832E-001,-4.040434062480927E-001,-9.227740578353405E-003,7.434201240539551E-002,-9.084782600402832E-001,-4.040434062480927E-001,
8.991666666666668E+008,-3.778781043365598E-003,6.830153614282608E-002,-9.072241783142090E-001,-3.765313327312470E-001,-3.778781043365598E-003,6.830153614282608E-002,-9.072241783142090E-001,-3.765313327312470E-001,
9.075333333333334E+008,-3.395614214241505E-003,6.097595021128655E-002,-9.224090576171875E-001,-3.515611290931702E-001,-3.395614214241505E-003,6.097595021128655E-002,-9.224090576171875E-001,-3.515611290931702E-001,
9.159000000000000E+008,-6.306290160864592E-003,5.524282902479172E-002,-9.429782032966614E-001,-3.257860541343689E-001,-6.306290160864592E-003,5.524282902479172E-002,-9.429782032966614E-001,-3.257860541343689E-001,
9.242666666666668E+008,-1.297318097203970E-002,5.555068328976631E-002,-9.340307712554932E-001,-3.039207458496094E-001,-1.297318097203970E-002,5.555068328976631E-002,-9.340307712554932E-001,-3.039207458496094E-001,
9.326333333333334E+008,-1.774565875530243E-002,5.780227109789848E-002,-9.498123526573181E-001,-2.889386415481567E-001,-1.774565875530243E-002,5.780227109789848E-002,-9.498123526573181E-001,-2.889386415481567E-001,
9.410000000000000E+008,-2.156217023730278E-002,6.218949705362320E-002,-9.595962762832642E-001,-2.527728676795960E-001,-2.156217023730278E-002,6.218949705362320E-002,-9.595962762832642E-001,-2.527728676795960E-001,
9.493666666666668E+008,-2.259295061230660E-002,7.149601727724075E-002,-9.639129042625427E-001,-2.222290784120560E-001,-2.259295061230660E-002,7.149601727724075E-002,-9.639129042625427E-001,-2.222290784120560E-001,
9.577333333333334E+008,-1.859078928828239E-002,8.117546141147614E-002,-9.694288969039917E-001,-2.085086554288864E-001,-1.859078928828239E-002,8.117546141147614E-002,-9.694288969039917E-001,-2.085086554288864E-001,
9.661000000000000E+008,-9.476548992097378E-003,8.775807917118073E-002,-9.699019789695740E-001,-1.662239879369736E-001,-9.476548992097378E-003,8.775807917118073E-002,-9.699019789695740E-001,-1.662239879369736E-001,
9.744666666666668E+008,1.666259719058871E-003,8.766363561153412E-002,-9.685574173927307E-001,-1.572546213865280E-001,1.666259719058871E-003,8.766363561153412E-002,-9.685574173927307E-001,-1.572546213865280E-001,
9.828333333333334E+008,1.096795499324799E-002,8.857098966836929E-002,-9.831143617630005E-001,-1.363692581653595E-001,1.096795499324799E-002,8.857098966836929E-002,-9.831143617630005E-001,-1.363692581653595E-001,
9.912000000000000E+008,2.160073630511761E-002,8.191025257110596E-002,-9.800919294357300E-001,-1.142919659614563E-001,2.160073630511761E-002,8.191025257110596E-002,-9.800919294357300E-001,-1.142919659614563E-001,
9.995666666666668E+008,2.526191063225269E-002,7.420807331800461E-002,-9.919713735580444E-001,-7.753074914216995E-002,2.526191063225269E-002,7.420807331800461E-002,-9.919713735580444E-001,-7.753074914216995E-002,
1.007933333333333E+009,2.869822643697262E-002,6.452480703592300E-002,-1.005704879760742E+000,-6.011416018009186E-002,2.869822643697262E-002,6.452480703592300E-002,-1.005704879760742E+000,-6.011416018009186E-002,
1.016300000000000E+009,2.256151847541332E-002,5.855000391602516E-002,-9.924429059028626E-001,-3.379855677485466E-002,2.256151847541332E-002,5.855000391602516E-002,-9.924429059028626E-001,-3.379855677485466E-002,
1.024666666666667E+009,1.486044097691774E-002,5.495859682559967E-002,-9.877440929412842E-001,-7.578884717077017E-003,1.486044097691774E-002,5.495859682559967E-002,-9.877440929412842E-001,-7.578884717077017E-003,
1.033033333333333E+009,1.002764049917460E-002,5.979779735207558E-002,-9.942933320999146E-001,1.933035813271999E-002,1.002764049917460E-002,5.979779735207558E-002,-9.942933320999146E-001,1.933035813271999E-002,
1.041400000000000E+009,3.635850036516786E-003,6.486062705516815E-002,-9.940389394760132E-001,4.012206941843033E-002,3.635850036516786E-003,6.486062705516815E-002,-9.940389394760132E-001,4.012206941843033E-002,
1.049766666666667E+009,7.354763336479664E-003,7.425756007432938E-002,-9.791133999824524E-001,7.652400434017181E-002,7.354763336479664E-003,7.425756007432938E-002,-9.791133999824524E-001,7.652400434017181E-002,
1.058133333333333E+009,1.227760780602694E-002,8.320595324039459E-002,-9.800355434417725E-001,9.879866987466812E-002,1.227760780602694E-002,8.320595324039459E-002,-9.800355434417725E-001,9.879866987466812E-002,
1.066500000000000E+009,2.400797978043556E-002,8.692336827516556E-002,-9.940336942672730E-001,1.329692602157593E-001,2.400797978043556E-002,8.692336827516556E-002,-9.940336942672730E-001,1.329692602157593E-001,
1.074866666666667E+009,3.783317655324936E-002,8.508992940187454E-002,-9.872598648071289E-001,1.530948132276535E-001,3.783317655324936E-002,8.508992940187454E-002,-9.872598648071289E-001,1.530948132276535E-001,
1.083233333333334E+009,4.682341590523720E-002,7.662111520767212E-002,-9.712606668472290E-001,1.740905642509460E-001,4.682341590523720E-002,7.662111520767212E-002,-9.712606668472290E-001,1.740905642509460E-001,
1.091600000000000E+009,5.333452671766281E-002,6.579019874334335E-002,-9.534488320350647E-001,1.930450499057770E-001,5.333452671766281E-002,6.579019874334335E-002,-9.534488320350647E-001,1.930450499057770E-001,
1.099966666666667E+009,5.206968262791634E-002,5.221115052700043E-002,-9.481498003005981E-001,2.317215502262116E-001,5.206968262791634E-002,5.221115052700043E-002,-9.481498003005981E-001,2.317215502262116E-001,
1.108333333333334E+009,4.372573271393776E-002,4.444181546568871E-002,-9.483393430709839E-001,2.399659305810928E-001,4.372573271393776E-002,4.444181546568871E-002,-9.483393430709839E-001,2.399659305810928E-001,
1.116700000000000E+009,3.324911743402481E-002,4.148863628506661E-002,-9.399859905242920E-001,2.734028398990631E-001,3.324911743402481E-002,4.148863628506661E-002,-9.399859905242920E-001,2.734028398990631E-001,
1.125066666666667E+009,2.231892012059689E-002,4.648255556821823E-002,-9.402069449424744E-001,2.905443310737610E-001,2.231892012059689E-002,4.648255556821823E-002,-9.402069449424744E-001,2.905443310737610E-001,
1.133433333333334E+009,1.515627186745405E-002,5.651579424738884E-002,-9.368872642517090E-001,3.355512917041779E-001,1.515627186745405E-002,5.651579424738884E-002,-9.368872642517090E-001,3.355512917041779E-001,
1.141800000000000E+009,1.461153477430344E-002,6.994030624628067E-002,-9.134281277656555E-001,3.494281768798828E-001,1.461153477430344E-002,6.994030624628067E-002,-9.134281277656555E-001,3.494281768798828E-001,
1.150166666666667E+009,2.428188174962997E-002,8.374294638633728E-002,-9.048687219619751E-001,3.500421941280365E-001,2.428188174962997E-002,8.374294638633728E-002,-9.048687219619751E-001,3.500421941280365E-001,
1.158533333333334E+009,4.090271890163422E-002,9.027680009603500E-002,-8.962388038635254E-001,3.901806771755219E-001,4.090271890163422E-002,9.027680009603500E-002,-8.962388038635254E-001,3.901806771755219E-001,
1.166900000000000E+009,6.047916039824486E-002,8.918097615242004E-002,-8.791713118553162E-001,4.104106724262238E-001,6.047916039824486E-002,8.918097615242004E-002,-8.791713118553162E-001,4.104106724262238E-001,
1.175266666666667E+009,7.622589915990830E-002,7.758992910385132E-002,-8.727779984474182E-001,4.388741850852966E-001,7.622589915990830E-002,7.758992910385132E-002,-8.727779984474182E-001,4.388741850852966E-001,
1.183633333333334E+009,8.803080767393112E-002,6.235710158944130E-002,-8.719357252120972E-001,4.505789577960968E-001,8.803080767393112E-002,6.235710158944130E-002,-8.719357252120972E-001,4.505789577960968E-001,
1.192000000000000E+009,8.766272664070129E-002,4.321121051907539E-002,-8.587951064109802E-001,4.741679430007935E-001,8.766272664070129E-002,4.321121051907539E-002,-8.587951064109802E-001,4.741679430007935E-001,
1.200366666666667E+009,7.775041460990906E-002,2.694089710712433E-002,-8.459107875823975E-001,4.948641359806061E-001,7.775041460990906E-002,2.694089710712433E-002,-8.459107875823975E-001,4.948641359806061E-001,
1.208733333333334E+009,6.266346573829651E-002,1.839381083846092E-002,-8.375182747840881E-001,5.367606282234192E-001,6.266346573829651E-002,1.839381083846092E-002,-8.375182747840881E-001,5.367606282234192E-001,
1.217100000000000E+009,4.687701165676117E-002,2.019444294273853E-002,-8.339996933937073E-001,5.474179387092590E-001,4.687701165676117E-002,2.019444294273853E-002,-8.339996933937073E-001,5.474179387092590E-001,
1.225466666666667E+009,3.510739281773567E-002,3.169666975736618E-002,-8.011479973793030E-001,5.709486007690430E-001,3.510739281773567E-002,3.169666975736618E-002,-8.011479973793030E-001,5.709486007690430E-001,
1.233833333333334E+009,3.133726119995117E-002,4.825592413544655E-002,-7.956563830375671E-001,5.828549861907959E-001,3.133726119995117E-002,4.825592413544655E-002,-7.956563830375671E-001,5.828549861907959E-001,
1.242200000000000E+009,4.050522297620773E-002,6.224729493260384E-002,-7.691737413406372E-001,6.162769794464111E-001,4.050522297620773E-002,6.224729493260384E-002,-7.691737413406372E-001,6.162769794464111E-001,
1.250566666666667E+009,5.434721335768700E-002,7.143581658601761E-002,-7.478123903274536E-001,6.214177608489990E-001,5.434721335768700E-002,7.143581658601761E-002,-7.478123903274536E-001,6.214177608489990E-001,
1.258933333333334E+009,7.489065825939179E-002,7.061050087213516E-002,-7.410469651222229E-001,6.426756978034973E-001,7.489065825939179E-002,7.061050087213516E-002,-7.410469651222229E-001,6.426756978034973E-001,
1.267300000000000E+009,9.438181668519974E-002,5.879413709044457E-002,-7.222135066986084E-001,6.564250588417053E-001,9.438181668519974E-002,5.879413709044457E-002,-7.222135066986084E-001,6.564250588417053E-001,
1.275666666666667E+009,1.029820367693901E-001,4.008786380290985E-002,-7.091583609580994E-001,6.637431383132935E-001,1.029820367693901E-001,4.008786380290985E-002,-7.091583609580994E-001,6.637431383132935E-001,
1.284033333333334E+009,1.046417802572250E-001,1.867193542420864E-002,-6.929293870925903E-001,7.061104774475098E-001,1.046417802572250E-001,1.867193542420864E-002,-6.929293870925903E-001,7.061104774475098E-001,
1.292400000000000E+009,9.393205493688583E-002,2.393006288912147E-004,-6.815596818923950E-001,7.093675732612610E-001,9.393205493688583E-002,2.393006288912147E-004,-6.815596818923950E-001,7.093675732612610E-001,
1.300766666666667E+009,7.421652972698212E-002,-7.828209549188614E-003,-6.585534811019898E-001,7.329490184783936E-001,7.421652972698212E-002,-7.828209549188614E-003,-6.585534811019898E-001,7.329490184783936E-001,
1.309133333333334E+009,5.426035821437836E-002,-5.896156653761864E-003,-6.331393122673035E-001,7.472301125526428E-001,5.426035821437836E-002,-5.896156653761864E-003,-6.331393122673035E-001,7.472301125526428E-001,
1.317500000000000E+009,4.032122343778610E-002,6.563086062669754E-003,-6.191233992576599E-001,7.786940336227417E-001,4.032122343778610E-002,6.563086062669754E-003,-6.191233992576599E-001,7.786940336227417E-001,
1.325866666666667E+009,3.647810593247414E-002,2.376309223473072E-002,-6.002939343452454E-001,7.922872304916382E-001,3.647810593247414E-002,2.376309223473072E-002,-6.002939343452454E-001,7.922872304916382E-001,
1.334233333333334E+009,4.551468789577484E-002,4.082668200135231E-002,-5.809234380722046E-001,7.979747056961060E-001,4.551468789577484E-002,4.082668200135231E-002,-5.809234380722046E-001,7.979747056961060E-001,
1.342600000000000E+009,6.173281744122505E-002,4.894990101456642E-002,-5.623998641967773E-001,8.149940967559815E-001,6.173281744122505E-002,4.894990101456642E-002,-5.623998641967773E-001,8.149940967559815E-001,
1.350966666666667E+009,8.195454627275467E-002,4.485772922635078E-002,-5.363501310348511E-001,8.261210322380066E-001,8.195454627275467E-002,4.485772922635078E-002,-5.363501310348511E-001,8.261210322380066E-001,
1.359333333333334E+009,9.665838629007340E-002,3.037628903985024E-002,-5.233703851699829E-001,8.257093429565430E-001,9.665838629007340E-002,3.037628903985024E-002,-5.233703851699829E-001,8.257093429565430E-001,
1.367700000000000E+009,1.018994227051735E-001,9.918681345880032E-003,-4.893885850906372E-001,8.433162569999695E-001,1.018994227051735E-001,9.918681345880032E-003,-4.893885850906372E-001,8.433162569999695E-001,
1.376066666666667E+009,9.768353402614594E-002,-1.265601906925440E-002,-4.738532602787018E-001,8.524316549301148E-001,9.768353402614594E-002,-1.265601906925440E-002,-4.738532602787018E-001,8.524316549301148E-001,
1.384433333333334E+009,8.017663657665253E-002,-2.766151539981365E-002,-4.586672782897949E-001,8.825750350952148E-001,8.017663657665253E-002,-2.766151539981365E-002,-4.586672782897949E-001,8.825750350952148E-001,
1.392800000000000E+009,5.963698029518127E-002,-2.958274446427822E-002,-4.371388852596283E-001,8.917926549911499E-001,5.963698029518127E-002,-2.958274446427822E-002,-4.371388852596283E-001,8.917926549911499E-001,
1.401166666666667E+009,3.955017030239105E-002,-2.150461077690125E-002,-4.099447131156921E-001,8.981624245643616E-001,3.955017030239105E-002,-2.150461077690125E-002,-4.099447131156921E-001,8.981624245643616E-001,
1.409533333333334E+009,2.679131552577019E-002,-3.975783009082079E-003,-3.803424537181854E-001,9.123964905738831E-001,2.679131552577019E-002,-3.975783009082079E-003,-3.803424537181854E-001,9.123964905738831E-001,
1.417900000000000E+009,2.867781370878220E-002,1.929841749370098E-002,-3.608068525791168E-001,9.073004722595215E-001,2.867781370878220E-002,1.929841749370098E-002,-3.608068525791168E-001,9.073004722595215E-001,
1.426266666666667E+009,4.023716226220131E-002,3.577819839119911E-002,-3.234670758247376E-001,9.348139762878418E-001,4.023716226220131E-002,3.577819839119911E-002,-3.234670758247376E-001,9.348139762878418E-001,
1.434633333333334E+009,6.099494919180870E-002,4.309283941984177E-002,-3.134151697158814E-001,9.275850057601929E-001,6.099494919180870E-002,4.309283941984177E-002,-3.134151697158814E-001,9.275850057601929E-001,
1.443000000000000E+009,8.145277202129364E-002,3.911091014742851E-002,-2.886068224906921E-001,9.344000816345215E-001,8.145277202129364E-002,3.911091014742851E-002,-2.886068224906921E-001,9.344000816345215E-001,
1.451366666666667E+009,9.697111696004868E-002,2.243902161717415E-002,-2.628135681152344E-001,9.346767663955689E-001,9.697111696004868E-002,2.243902161717415E-002,-2.628135681152344E-001,9.346767663955689E-001,
1.459733333333334E+009,1.028656363487244E-001,1.431147451512516E-003,-2.368347793817520E-001,9.609333872795105E-001,1.028656363487244E-001,1.431147451512516E-003,-2.368347793817520E-001,9.609333872795105E-001,
