% Version 1.00
%
%freq[Hz],re:Trc1_S11,im:Trc1_S11,re:Trc2_S21,im:Trc2_S21,re:Trc3_S11,im:Trc3_S11,re:Trc4_S21,im:Trc4_S21,
6.900000000000000E+008,-4.497023299336433E-002,3.593342751264572E-002,-4.991525411605835E-001,-8.531228303909302E-001,-4.497023299336433E-002,3.593342751264572E-002,-4.991525411605835E-001,-8.531228303909302E-001,
6.983666666666666E+008,-3.690918162465096E-002,3.618473187088966E-002,-5.246593356132507E-001,-8.424345254898071E-001,-3.690918162465096E-002,3.618473187088966E-002,-5.246593356132507E-001,-8.424345254898071E-001,
7.067333333333334E+008,-3.088166564702988E-002,3.164608031511307E-002,-5.477542281150818E-001,-8.170977830886841E-001,-3.088166564702988E-002,3.164608031511307E-002,-5.477542281150818E-001,-8.170977830886841E-001,
7.151000000000000E+008,-3.050800412893295E-002,2.385248430073261E-002,-5.824471116065979E-001,-8.156010508537293E-001,-3.050800412893295E-002,2.385248430073261E-002,-5.824471116065979E-001,-8.156010508537293E-001,
7.234666666666666E+008,-3.232511132955551E-002,1.878111064434052E-002,-5.961170792579651E-001,-7.998023033142090E-001,-3.232511132955551E-002,1.878111064434052E-002,-5.961170792579651E-001,-7.998023033142090E-001,
7.318333333333334E+008,-3.952436149120331E-002,1.639412157237530E-002,-6.132711172103882E-001,-7.826042175292969E-001,-3.952436149120331E-002,1.639412157237530E-002,-6.132711172103882E-001,-7.826042175292969E-001,
7.402000000000000E+008,-4.570806026458740E-002,1.837914623320103E-002,-6.234832406044006E-001,-7.577314972877502E-001,-4.570806026458740E-002,1.837914623320103E-002,-6.234832406044006E-001,-7.577314972877502E-001,
7.485666666666666E+008,-5.094277113676071E-002,2.532829158008099E-002,-6.538149118423462E-001,-7.447227835655212E-001,-5.094277113676071E-002,2.532829158008099E-002,-6.538149118423462E-001,-7.447227835655212E-001,
7.569333333333334E+008,-5.490430444478989E-002,3.502171486616135E-002,-6.716933250427246E-001,-7.317129373550415E-001,-5.490430444478989E-002,3.502171486616135E-002,-6.716933250427246E-001,-7.317129373550415E-001,
7.653000000000000E+008,-4.979957267642021E-002,4.373439028859139E-002,-6.810847520828247E-001,-7.131487131118774E-001,-4.979957267642021E-002,4.373439028859139E-002,-6.810847520828247E-001,-7.131487131118774E-001,
7.736666666666666E+008,-4.366741701960564E-002,5.028951913118362E-002,-6.930369138717651E-001,-7.084066271781921E-001,-4.366741701960564E-002,5.028951913118362E-002,-6.930369138717651E-001,-7.084066271781921E-001,
7.820333333333334E+008,-3.524417057633400E-002,5.420104414224625E-002,-7.265575528144836E-001,-6.807911396026611E-001,-3.524417057633400E-002,5.420104414224625E-002,-7.265575528144836E-001,-6.807911396026611E-001,
7.904000000000000E+008,-2.544329129159451E-002,5.292626842856407E-002,-7.357161641120911E-001,-6.611244678497315E-001,-2.544329129159451E-002,5.292626842856407E-002,-7.357161641120911E-001,-6.611244678497315E-001,
7.987666666666666E+008,-2.134991064667702E-002,4.752399399876595E-002,-7.413563132286072E-001,-6.466706395149231E-001,-2.134991064667702E-002,4.752399399876595E-002,-7.413563132286072E-001,-6.466706395149231E-001,
8.071333333333334E+008,-1.917177625000477E-002,4.087389633059502E-002,-7.675727009773254E-001,-6.141428351402283E-001,-1.917177625000477E-002,4.087389633059502E-002,-7.675727009773254E-001,-6.141428351402283E-001,
8.155000000000000E+008,-2.207478508353233E-002,3.376616537570953E-002,-7.939634919166565E-001,-6.031810045242310E-001,-2.207478508353233E-002,3.376616537570953E-002,-7.939634919166565E-001,-6.031810045242310E-001,
8.238666666666666E+008,-2.846664562821388E-002,3.163443133234978E-002,-8.001399636268616E-001,-5.797331929206848E-001,-2.846664562821388E-002,3.163443133234978E-002,-8.001399636268616E-001,-5.797331929206848E-001,
8.322333333333334E+008,-3.385117277503014E-002,3.290344029664993E-002,-8.099841475486755E-001,-5.618021488189697E-001,-3.385117277503014E-002,3.290344029664993E-002,-8.099841475486755E-001,-5.618021488189697E-001,
8.406000000000000E+008,-3.848652169108391E-002,3.604970127344132E-002,-8.224577903747559E-001,-5.392738580703735E-001,-3.848652169108391E-002,3.604970127344132E-002,-8.224577903747559E-001,-5.392738580703735E-001,
8.489666666666668E+008,-4.018034040927887E-002,4.720250144600868E-002,-8.342968225479126E-001,-5.108317732810974E-001,-4.018034040927887E-002,4.720250144600868E-002,-8.342968225479126E-001,-5.108317732810974E-001,
8.573333333333334E+008,-3.825976699590683E-002,5.506860837340355E-002,-8.369617462158203E-001,-4.800817668437958E-001,-3.825976699590683E-002,5.506860837340355E-002,-8.369617462158203E-001,-4.800817668437958E-001,
8.657000000000000E+008,-3.321462497115135E-002,6.278043240308762E-002,-8.641949295997620E-001,-4.844560623168945E-001,-3.321462497115135E-002,6.278043240308762E-002,-8.641949295997620E-001,-4.844560623168945E-001,
8.740666666666668E+008,-2.445438690483570E-002,6.784510612487793E-002,-8.707562685012817E-001,-4.604380428791046E-001,-2.445438690483570E-002,6.784510612487793E-002,-8.707562685012817E-001,-4.604380428791046E-001,
8.824333333333334E+008,-1.656949706375599E-002,6.924300640821457E-002,-8.892861604690552E-001,-4.354794621467590E-001,-1.656949706375599E-002,6.924300640821457E-002,-8.892861604690552E-001,-4.354794621467590E-001,
8.908000000000000E+008,-8.604007773101330E-003,6.566118448972702E-002,-9.027522206306458E-001,-4.180042147636414E-001,-8.604007773101330E-003,6.566118448972702E-002,-9.027522206306458E-001,-4.180042147636414E-001,
8.991666666666668E+008,-3.252848517149687E-003,5.953814461827278E-002,-9.025015234947205E-001,-3.901599049568176E-001,-3.252848517149687E-003,5.953814461827278E-002,-9.025015234947205E-001,-3.901599049568176E-001,
9.075333333333334E+008,-2.896582707762718E-003,5.182816460728645E-002,-9.170299172401428E-001,-3.653885126113892E-001,-2.896582707762718E-003,5.182816460728645E-002,-9.170299172401428E-001,-3.653885126113892E-001,
9.159000000000000E+008,-5.499461665749550E-003,4.579553753137589E-002,-9.382944703102112E-001,-3.404143452644348E-001,-5.499461665749550E-003,4.579553753137589E-002,-9.382944703102112E-001,-3.404143452644348E-001,
9.242666666666668E+008,-1.206504646688700E-002,4.571051150560379E-002,-9.294945001602173E-001,-3.185510039329529E-001,-1.206504646688700E-002,4.571051150560379E-002,-9.294945001602173E-001,-3.185510039329529E-001,
9.326333333333334E+008,-1.694212481379509E-002,4.771379008889198E-002,-9.460463523864746E-001,-3.048528134822846E-001,-1.694212481379509E-002,4.771379008889198E-002,-9.460463523864746E-001,-3.048528134822846E-001,
9.410000000000000E+008,-2.095547132194042E-002,5.187705531716347E-002,-9.565820693969727E-001,-2.689719796180725E-001,-2.095547132194042E-002,5.187705531716347E-002,-9.565820693969727E-001,-2.689719796180725E-001,
9.493666666666668E+008,-2.256826311349869E-002,6.111840903759003E-002,-9.611398577690125E-001,-2.387624680995941E-001,-2.256826311349869E-002,6.111840903759003E-002,-9.611398577690125E-001,-2.387624680995941E-001,
9.577333333333334E+008,-1.909553445875645E-002,7.099907845258713E-002,-9.669548869132996E-001,-2.249267250299454E-001,-1.909553445875645E-002,7.099907845258713E-002,-9.669548869132996E-001,-2.249267250299454E-001,
9.661000000000000E+008,-1.061756536364555E-002,7.781121879816055E-002,-9.677016735076904E-001,-1.829505413770676E-001,-1.061756536364555E-002,7.781121879816055E-002,-9.677016735076904E-001,-1.829505413770676E-001,
9.744666666666668E+008,-1.145445130532607E-004,7.829120010137558E-002,-9.660807847976685E-001,-1.728799790143967E-001,-1.145445130532607E-004,7.829120010137558E-002,-9.660807847976685E-001,-1.728799790143967E-001,
9.828333333333334E+008,8.864942938089371E-003,7.944995909929276E-002,-9.813614487648010E-001,-1.532288640737534E-001,8.864942938089371E-003,7.944995909929276E-002,-9.813614487648010E-001,-1.532288640737534E-001,
9.912000000000000E+008,1.922497525811195E-002,7.297783344984055E-002,-9.792162775993347E-001,-1.311767250299454E-001,1.922497525811195E-002,7.297783344984055E-002,-9.792162775993347E-001,-1.311767250299454E-001,
9.995666666666668E+008,2.287959493696690E-002,6.502799689769745E-002,-9.921969771385193E-001,-9.430251270532608E-002,2.287959493696690E-002,6.502799689769745E-002,-9.921969771385193E-001,-9.430251270532608E-002,
1.007933333333333E+009,2.643690817058086E-002,5.518516898155212E-002,-1.005791902542114E+000,-7.751285284757614E-002,2.643690817058086E-002,5.518516898155212E-002,-1.005791902542114E+000,-7.751285284757614E-002,
1.016300000000000E+009,2.043092995882034E-002,4.885418713092804E-002,-9.927230477333069E-001,-5.082432180643082E-002,2.043092995882034E-002,4.885418713092804E-002,-9.927230477333069E-001,-5.082432180643082E-002,
1.024666666666667E+009,1.282209996134043E-002,4.462094977498055E-002,-9.885032176971436E-001,-2.471283078193665E-002,1.282209996134043E-002,4.462094977498055E-002,-9.885032176971436E-001,-2.471283078193665E-002,
1.033033333333333E+009,7.920449599623680E-003,4.902936518192291E-002,-9.949909448623657E-001,1.254996284842491E-003,7.920449599623680E-003,4.902936518192291E-002,-9.949909448623657E-001,1.254996284842491E-003,
1.041400000000000E+009,1.371542923152447E-003,5.399824678897858E-002,-9.960340857505798E-001,2.219364792108536E-002,1.371542923152447E-003,5.399824678897858E-002,-9.960340857505798E-001,2.219364792108536E-002,
1.049766666666667E+009,4.514372907578945E-003,6.353556364774704E-002,-9.815726876258850E-001,5.882647633552551E-002,4.514372907578945E-003,6.353556364774704E-002,-9.815726876258850E-001,5.882647633552551E-002,
1.058133333333333E+009,8.750104345381260E-003,7.276006042957306E-002,-9.830639958381653E-001,8.094407618045807E-002,8.750104345381260E-003,7.276006042957306E-002,-9.830639958381653E-001,8.094407618045807E-002,
1.066500000000000E+009,1.982687786221504E-002,7.722689211368561E-002,-9.980739355087280E-001,1.147331297397614E-001,1.982687786221504E-002,7.722689211368561E-002,-9.980739355087280E-001,1.147331297397614E-001,
1.074866666666667E+009,3.322629258036614E-002,7.607237994670868E-002,-9.920971989631653E-001,1.354417502880096E-001,3.322629258036614E-002,7.607237994670868E-002,-9.920971989631653E-001,1.354417502880096E-001,
1.083233333333334E+009,4.178680852055550E-002,6.807778030633926E-002,-9.755790233612061E-001,1.568185091018677E-001,4.178680852055550E-002,6.807778030633926E-002,-9.755790233612061E-001,1.568185091018677E-001,
1.091600000000000E+009,4.811836034059525E-002,5.739479139447212E-002,-9.577599167823792E-001,1.761606335639954E-001,4.811836034059525E-002,5.739479139447212E-002,-9.577599167823792E-001,1.761606335639954E-001,
1.099966666666667E+009,4.705172777175903E-002,4.367062821984291E-002,-9.531548619270325E-001,2.145230174064636E-001,4.705172777175903E-002,4.367062821984291E-002,-9.531548619270325E-001,2.145230174064636E-001,
1.108333333333334E+009,3.877995163202286E-002,3.530225157737732E-002,-9.530810713768005E-001,2.228101491928101E-001,3.877995163202286E-002,3.530225157737732E-002,-9.530810713768005E-001,2.228101491928101E-001,
1.116700000000000E+009,2.828291803598404E-002,3.159445524215698E-002,-9.456158280372620E-001,2.560604810714722E-001,2.828291803598404E-002,3.159445524215698E-002,-9.456158280372620E-001,2.560604810714722E-001,
1.125066666666667E+009,1.703881658613682E-002,3.581455349922180E-002,-9.466388225555420E-001,2.729666829109192E-001,1.703881658613682E-002,3.581455349922180E-002,-9.466388225555420E-001,2.729666829109192E-001,
1.133433333333334E+009,9.322473779320717E-003,4.548216611146927E-002,-9.442995786666870E-001,3.175527453422546E-001,9.322473779320717E-003,4.548216611146927E-002,-9.442995786666870E-001,3.175527453422546E-001,
1.141800000000000E+009,8.041865192353725E-003,5.888886004686356E-002,-9.220466613769531E-001,3.320555388927460E-001,8.041865192353725E-003,5.888886004686356E-002,-9.220466613769531E-001,3.320555388927460E-001,
1.150166666666667E+009,1.718955859541893E-002,7.332403212785721E-002,-9.127033352851868E-001,3.330040872097015E-001,1.718955859541893E-002,7.332403212785721E-002,-9.127033352851868E-001,3.330040872097015E-001,
1.158533333333334E+009,3.321452066302300E-002,8.056624233722687E-002,-9.053668975830078E-001,3.732157051563263E-001,3.321452066302300E-002,8.056624233722687E-002,-9.053668975830078E-001,3.732157051563263E-001,
1.166900000000000E+009,5.237468704581261E-002,8.076853305101395E-002,-8.889220952987671E-001,3.935764133930206E-001,5.237468704581261E-002,8.076853305101395E-002,-8.889220952987671E-001,3.935764133930206E-001,
1.175266666666667E+009,6.829088926315308E-002,7.015041261911392E-002,-8.839823603630066E-001,4.234966933727264E-001,6.829088926315308E-002,7.015041261911392E-002,-8.839823603630066E-001,4.234966933727264E-001,
1.183633333333334E+009,8.011364191770554E-002,5.546674877405167E-002,-8.815015554428101E-001,4.348604083061218E-001,8.011364191770554E-002,5.546674877405167E-002,-8.815015554428101E-001,4.348604083061218E-001,
1.192000000000000E+009,7.995401322841644E-002,3.654761612415314E-002,-8.691189289093018E-001,4.580047130584717E-001,7.995401322841644E-002,3.654761612415314E-002,-8.691189289093018E-001,4.580047130584717E-001,
1.200366666666667E+009,7.028872519731522E-002,1.974316127598286E-002,-8.564635515213013E-001,4.791029691696167E-001,7.028872519731522E-002,1.974316127598286E-002,-8.564635515213013E-001,4.791029691696167E-001,
1.208733333333334E+009,5.510335415601730E-002,1.060751546174288E-002,-8.492539525032044E-001,5.211760997772217E-001,5.510335415601730E-002,1.060751546174288E-002,-8.492539525032044E-001,5.211760997772217E-001,
1.217100000000000E+009,3.886507451534271E-002,1.149933133274317E-002,-8.458293676376343E-001,5.311842560768127E-001,3.886507451534271E-002,1.149933133274317E-002,-8.458293676376343E-001,5.311842560768127E-001,
1.225466666666667E+009,2.636010199785233E-002,2.212632633745670E-002,-8.134444952011108E-001,5.560103654861450E-001,2.636010199785233E-002,2.212632633745670E-002,-8.134444952011108E-001,5.560103654861450E-001,
1.233833333333334E+009,2.183021232485771E-002,3.852979466319084E-002,-8.085932135581970E-001,5.675574541091919E-001,2.183021232485771E-002,3.852979466319084E-002,-8.085932135581970E-001,5.675574541091919E-001,
1.242200000000000E+009,3.028336353600025E-002,5.300645157694817E-002,-7.828334569931030E-001,6.012235283851624E-001,3.028336353600025E-002,5.300645157694817E-002,-7.828334569931030E-001,6.012235283851624E-001,
1.250566666666667E+009,4.354145005345345E-002,6.333568692207336E-002,-7.612926363945007E-001,6.069524884223938E-001,4.354145005345345E-002,6.333568692207336E-002,-7.612926363945007E-001,6.069524884223938E-001,
1.258933333333334E+009,6.428644061088562E-002,6.363487243652344E-002,-7.560881972312927E-001,6.288369297981262E-001,6.428644061088562E-002,6.363487243652344E-002,-7.560881972312927E-001,6.288369297981262E-001,
1.267300000000000E+009,8.391888439655304E-002,5.307127162814140E-002,-7.369943261146545E-001,6.432308554649353E-001,8.391888439655304E-002,5.307127162814140E-002,-7.369943261146545E-001,6.432308554649353E-001,
1.275666666666667E+009,9.312643110752106E-002,3.508892282843590E-002,-7.238498926162720E-001,6.508678793907166E-001,9.312643110752106E-002,3.508892282843590E-002,-7.238498926162720E-001,6.508678793907166E-001,
1.284033333333334E+009,9.524695575237274E-002,1.400165352970362E-002,-7.081647515296936E-001,6.931660771369934E-001,9.524695575237274E-002,1.400165352970362E-002,-7.081647515296936E-001,6.931660771369934E-001,
1.292400000000000E+009,8.472174406051636E-002,-4.888966213911772E-003,-6.959913372993469E-001,6.966077685356140E-001,8.472174406051636E-002,-4.888966213911772E-003,-6.959913372993469E-001,6.966077685356140E-001,
1.300766666666667E+009,6.497382372617722E-002,-1.356829144060612E-002,-6.738731861114502E-001,7.207452058792114E-001,6.497382372617722E-002,-1.356829144060612E-002,-6.738731861114502E-001,7.207452058792114E-001,
1.309133333333334E+009,4.428727924823761E-002,-1.249305531382561E-002,-6.492370367050171E-001,7.351118326187134E-001,4.428727924823761E-002,-1.249305531382561E-002,-6.492370367050171E-001,7.351118326187134E-001,
1.317500000000000E+009,2.953060157597065E-002,-7.542046369053423E-004,-6.372702121734619E-001,7.668928503990173E-001,2.953060157597065E-002,-7.542046369053423E-004,-6.372702121734619E-001,7.668928503990173E-001,
1.325866666666667E+009,2.462993375957012E-002,1.599525846540928E-002,-6.175563931465149E-001,7.810368537902832E-001,2.462993375957012E-002,1.599525846540928E-002,-6.175563931465149E-001,7.810368537902832E-001,
1.334233333333334E+009,3.275828808546066E-002,3.350733965635300E-002,-5.988156199455261E-001,7.867405414581299E-001,3.275828808546066E-002,3.350733965635300E-002,-5.988156199455261E-001,7.867405414581299E-001,
1.342600000000000E+009,4.844089969992638E-002,4.254410415887833E-002,-5.815175771713257E-001,8.040568232536316E-001,4.844089969992638E-002,4.254410415887833E-002,-5.815175771713257E-001,8.040568232536316E-001,
1.350966666666667E+009,6.899934262037277E-002,3.983157500624657E-002,-5.558794736862183E-001,8.159067630767822E-001,6.899934262037277E-002,3.983157500624657E-002,-5.558794736862183E-001,8.159067630767822E-001,
1.359333333333334E+009,8.434191346168518E-002,2.636526525020599E-002,-5.423637628555298E-001,8.153246045112610E-001,8.434191346168518E-002,2.636526525020599E-002,-5.423637628555298E-001,8.153246045112610E-001,
1.367700000000000E+009,9.051739424467087E-002,6.595499813556671E-003,-5.083876848220825E-001,8.345491886138916E-001,9.051739424467087E-002,6.595499813556671E-003,-5.083876848220825E-001,8.345491886138916E-001,
1.376066666666667E+009,8.681904524564743E-002,-1.570044457912445E-002,-4.929504394531250E-001,8.440297245979309E-001,8.681904524564743E-002,-1.570044457912445E-002,-4.929504394531250E-001,8.440297245979309E-001,
1.384433333333334E+009,6.978636234998703E-002,-3.117513284087181E-002,-4.784011542797089E-001,8.755736947059631E-001,6.978636234998703E-002,-3.117513284087181E-002,-4.784011542797089E-001,8.755736947059631E-001,
1.392800000000000E+009,4.857079312205315E-002,-3.369061648845673E-002,-4.573717713356018E-001,8.826238512992859E-001,4.857079312205315E-002,-3.369061648845673E-002,-4.573717713356018E-001,8.826238512992859E-001,
1.401166666666667E+009,2.744716405868530E-002,-2.636628970503807E-002,-4.299965202808380E-001,8.903919458389282E-001,2.744716405868530E-002,-2.636628970503807E-002,-4.299965202808380E-001,8.903919458389282E-001,
1.409533333333334E+009,1.349128503352404E-002,-8.957595564424992E-003,-4.010243415832520E-001,9.046247005462647E-001,1.349128503352404E-002,-8.957595564424992E-003,-4.010243415832520E-001,9.046247005462647E-001,
1.417900000000000E+009,1.371338684111834E-002,1.427698135375977E-002,-3.817484080791473E-001,9.008454680442810E-001,1.371338684111834E-002,1.427698135375977E-002,-3.817484080791473E-001,9.008454680442810E-001,
1.426266666666667E+009,2.411838062107563E-002,3.117725439369679E-002,-3.451025784015656E-001,9.274175167083740E-001,2.411838062107563E-002,3.117725439369679E-002,-3.451025784015656E-001,9.274175167083740E-001,
1.434633333333334E+009,4.461900517344475E-002,3.971042111515999E-002,-3.354638218879700E-001,9.222258925437927E-001,4.461900517344475E-002,3.971042111515999E-002,-3.354638218879700E-001,9.222258925437927E-001,
1.443000000000000E+009,6.527556478977203E-002,3.686173260211945E-002,-3.111486732959747E-001,9.302207231521606E-001,6.527556478977203E-002,3.686173260211945E-002,-3.111486732959747E-001,9.302207231521606E-001,
1.451366666666667E+009,8.175441622734070E-002,2.121485583484173E-002,-2.849142849445343E-001,9.310035705566406E-001,8.175441622734070E-002,2.121485583484173E-002,-2.849142849445343E-001,9.310035705566406E-001,
1.459733333333334E+009,8.872391283512116E-002,8.013873593881726E-004,-2.587427794933319E-001,9.579600095748901E-001,8.872391283512116E-002,8.013873593881726E-004,-2.587427794933319E-001,9.579600095748901E-001,
