% Version 1.00
%
%freq[Hz],re:Trc1_S11,im:Trc1_S11,re:Trc2_S21,im:Trc2_S21,re:Trc3_S11,im:Trc3_S11,re:Trc4_S21,im:Trc4_S21,
6.900000000000000E+008,-6.484056264162064E-002,2.777698449790478E-003,-4.665900766849518E-001,-8.428500294685364E-001,-6.484056264162064E-002,2.777698449790478E-003,-4.665900766849518E-001,-8.428500294685364E-001,
6.983666666666666E+008,-5.515917390584946E-002,5.491082090884447E-003,-4.937578141689301E-001,-8.340149521827698E-001,-5.515917390584946E-002,5.491082090884447E-003,-4.937578141689301E-001,-8.340149521827698E-001,
7.067333333333334E+008,-4.911193624138832E-002,1.943175680935383E-003,-5.179632306098938E-001,-8.091766834259033E-001,-4.911193624138832E-002,1.943175680935383E-003,-5.179632306098938E-001,-8.091766834259033E-001,
7.151000000000000E+008,-4.920803382992744E-002,-4.412656649947166E-003,-5.526763796806335E-001,-8.070577383041382E-001,-4.920803382992744E-002,-4.412656649947166E-003,-5.526763796806335E-001,-8.070577383041382E-001,
7.234666666666666E+008,-5.114496499300003E-002,-9.266393259167671E-003,-5.675122141838074E-001,-7.929515242576599E-001,-5.114496499300003E-002,-9.266393259167671E-003,-5.675122141838074E-001,-7.929515242576599E-001,
7.318333333333334E+008,-5.833545699715614E-002,-1.098742615431547E-002,-5.852569937705994E-001,-7.761777043342590E-001,-5.833545699715614E-002,-1.098742615431547E-002,-5.852569937705994E-001,-7.761777043342590E-001,
7.402000000000000E+008,-6.479746103286743E-002,-8.779767900705338E-003,-5.958201289176941E-001,-7.523172497749329E-001,-6.479746103286743E-002,-8.779767900705338E-003,-5.958201289176941E-001,-7.523172497749329E-001,
7.485666666666666E+008,-7.020008563995361E-002,-1.658371998928487E-003,-6.265552639961243E-001,-7.392706871032715E-001,-7.020008563995361E-002,-1.658371998928487E-003,-6.265552639961243E-001,-7.392706871032715E-001,
7.569333333333334E+008,-7.457804679870606E-002,8.020671084523201E-003,-6.442870497703552E-001,-7.280033826828003E-001,-7.457804679870606E-002,8.020671084523201E-003,-6.442870497703552E-001,-7.280033826828003E-001,
7.653000000000000E+008,-6.964698433876038E-002,1.742209494113922E-002,-6.513661146163940E-001,-7.095410227775574E-001,-6.964698433876038E-002,1.742209494113922E-002,-6.513661146163940E-001,-7.095410227775574E-001,
7.736666666666666E+008,-6.398425996303558E-002,2.481827884912491E-002,-6.643176078796387E-001,-7.046678066253662E-001,-6.398425996303558E-002,2.481827884912491E-002,-6.643176078796387E-001,-7.046678066253662E-001,
7.820333333333334E+008,-5.616295337677002E-002,2.968698926270008E-002,-6.985307335853577E-001,-6.795081496238709E-001,-5.616295337677002E-002,2.968698926270008E-002,-6.985307335853577E-001,-6.795081496238709E-001,
7.904000000000000E+008,-4.675976186990738E-002,2.992628701031208E-002,-7.076348066329956E-001,-6.618816256523132E-001,-4.675976186990738E-002,2.992628701031208E-002,-7.076348066329956E-001,-6.618816256523132E-001,
7.987666666666666E+008,-4.328679665923119E-002,2.600340358912945E-002,-7.141080498695374E-001,-6.458191871643066E-001,-4.328679665923119E-002,2.600340358912945E-002,-7.141080498695374E-001,-6.458191871643066E-001,
8.071333333333334E+008,-4.132397472858429E-002,1.987575180828571E-002,-7.412014007568359E-001,-6.161235570907593E-001,-4.132397472858429E-002,1.987575180828571E-002,-7.412014007568359E-001,-6.161235570907593E-001,
8.155000000000000E+008,-4.388844594359398E-002,1.433537807315588E-002,-7.679973840713501E-001,-6.046897172927856E-001,-4.388844594359398E-002,1.433537807315588E-002,-7.679973840713501E-001,-6.046897172927856E-001,
8.238666666666666E+008,-5.056137964129448E-002,1.246669888496399E-002,-7.748464941978455E-001,-5.823699831962585E-001,-5.056137964129448E-002,1.246669888496399E-002,-7.748464941978455E-001,-5.823699831962585E-001,
8.322333333333334E+008,-5.639098212122917E-002,1.433386467397213E-002,-7.835646271705627E-001,-5.654008984565735E-001,-5.639098212122917E-002,1.433386467397213E-002,-7.835646271705627E-001,-5.654008984565735E-001,
8.406000000000000E+008,-6.124809384346008E-002,1.764688454568386E-002,-7.969597578048706E-001,-5.419691205024719E-001,-6.124809384346008E-002,1.764688454568386E-002,-7.969597578048706E-001,-5.419691205024719E-001,
8.489666666666668E+008,-6.323149800300598E-002,2.894060686230660E-002,-8.091776371002197E-001,-5.152317881584168E-001,-6.323149800300598E-002,2.894060686230660E-002,-8.091776371002197E-001,-5.152317881584168E-001,
8.573333333333334E+008,-6.161059811711311E-002,3.706826642155647E-002,-8.134931325912476E-001,-4.859121143817902E-001,-6.161059811711311E-002,3.706826642155647E-002,-8.134931325912476E-001,-4.859121143817902E-001,
8.657000000000000E+008,-5.653937160968781E-002,4.541055858135223E-002,-8.395943045616150E-001,-4.901542961597443E-001,-5.653937160968781E-002,4.541055858135223E-002,-8.395943045616150E-001,-4.901542961597443E-001,
8.740666666666668E+008,-4.810554161667824E-002,5.124468728899956E-002,-8.467194437980652E-001,-4.654456079006195E-001,-4.810554161667824E-002,5.124468728899956E-002,-8.467194437980652E-001,-4.654456079006195E-001,
8.824333333333334E+008,-4.040167480707169E-002,5.364173650741577E-002,-8.655481338500977E-001,-4.421614706516266E-001,-4.040167480707169E-002,5.364173650741577E-002,-8.655481338500977E-001,-4.421614706516266E-001,
8.908000000000000E+008,-3.250151500105858E-002,5.134451389312744E-002,-8.811599016189575E-001,-4.265419840812683E-001,-3.250151500105858E-002,5.134451389312744E-002,-8.811599016189575E-001,-4.265419840812683E-001,
8.991666666666668E+008,-2.675569429993630E-002,4.661123082041740E-002,-8.814243078231812E-001,-3.979928493499756E-001,-2.675569429993630E-002,4.661123082041740E-002,-8.814243078231812E-001,-3.979928493499756E-001,
9.075333333333334E+008,-2.674284763634205E-002,3.994349017739296E-002,-8.961290717124939E-001,-3.737580478191376E-001,-2.674284763634205E-002,3.994349017739296E-002,-8.961290717124939E-001,-3.737580478191376E-001,
9.159000000000000E+008,-2.905801124870777E-002,3.454342484474182E-002,-9.182286858558655E-001,-3.494659364223480E-001,-2.905801124870777E-002,3.454342484474182E-002,-9.182286858558655E-001,-3.494659364223480E-001,
9.242666666666668E+008,-3.565755113959312E-002,3.518525883555412E-002,-9.101166129112244E-001,-3.271335363388062E-001,-3.565755113959312E-002,3.518525883555412E-002,-9.101166129112244E-001,-3.271335363388062E-001,
9.326333333333334E+008,-4.062226414680481E-002,3.722900152206421E-002,-9.268340468406677E-001,-3.135730028152466E-001,-4.062226414680481E-002,3.722900152206421E-002,-9.268340468406677E-001,-3.135730028152466E-001,
9.410000000000000E+008,-4.461606219410896E-002,4.179916158318520E-002,-9.361809492111206E-001,-2.780312895774841E-001,-4.461606219410896E-002,4.179916158318520E-002,-9.361809492111206E-001,-2.780312895774841E-001,
9.493666666666668E+008,-4.638309776782990E-002,5.132414773106575E-002,-9.421752095222473E-001,-2.491933256387711E-001,-4.638309776782990E-002,5.132414773106575E-002,-9.421752095222473E-001,-2.491933256387711E-001,
9.577333333333334E+008,-4.335018247365952E-002,6.131655722856522E-002,-9.482001066207886E-001,-2.354677468538284E-001,-4.335018247365952E-002,6.131655722856522E-002,-9.482001066207886E-001,-2.354677468538284E-001,
9.661000000000000E+008,-3.483201935887337E-002,6.835921853780747E-002,-9.486320614814758E-001,-1.957252323627472E-001,-3.483201935887337E-002,6.835921853780747E-002,-9.486320614814758E-001,-1.957252323627472E-001,
9.744666666666668E+008,-2.378114126622677E-002,6.963248550891876E-002,-9.488374590873718E-001,-1.848222315311432E-001,-2.378114126622677E-002,6.963248550891876E-002,-9.488374590873718E-001,-1.848222315311432E-001,
9.828333333333334E+008,-1.480825152248144E-002,7.154905796051025E-002,-9.645033478736877E-001,-1.652708351612091E-001,-1.480825152248144E-002,7.154905796051025E-002,-9.645033478736877E-001,-1.652708351612091E-001,
9.912000000000000E+008,-4.037106409668922E-003,6.624121218919754E-002,-9.630316495895386E-001,-1.428855955600739E-001,-4.037106409668922E-003,6.624121218919754E-002,-9.630316495895386E-001,-1.428855955600739E-001,
9.995666666666668E+008,6.274780025705695E-005,5.939694866538048E-002,-9.765176773071289E-001,-1.059405952692032E-001,6.274780025705695E-005,5.939694866538048E-002,-9.765176773071289E-001,-1.059405952692032E-001,
1.007933333333333E+009,3.936744295060635E-003,5.088165029883385E-002,-9.906899333000183E-001,-8.972053229808807E-002,3.936744295060635E-003,5.088165029883385E-002,-9.906899333000183E-001,-8.972053229808807E-002,
1.016300000000000E+009,-1.812166301533580E-003,4.535401985049248E-002,-9.790355563163757E-001,-6.270193308591843E-002,-1.812166301533580E-003,4.535401985049248E-002,-9.790355563163757E-001,-6.270193308591843E-002,
1.024666666666667E+009,-9.281402453780174E-003,4.139157757163048E-002,-9.744694828987122E-001,-3.669250756502152E-002,-9.281402453780174E-003,4.139157757163048E-002,-9.744694828987122E-001,-3.669250756502152E-002,
1.033033333333333E+009,-1.420037448406220E-002,4.620559886097908E-002,-9.811812043190002E-001,-1.027398183941841E-002,-1.420037448406220E-002,4.620559886097908E-002,-9.811812043190002E-001,-1.027398183941841E-002,
1.041400000000000E+009,-2.072262018918991E-002,5.113233625888825E-002,-9.818733930587769E-001,1.002914551645517E-002,-2.072262018918991E-002,5.113233625888825E-002,-9.818733930587769E-001,1.002914551645517E-002,
1.049766666666667E+009,-1.738121174275875E-002,6.107708439230919E-002,-9.682267904281616E-001,4.648674279451370E-002,-1.738121174275875E-002,6.107708439230919E-002,-9.682267904281616E-001,4.648674279451370E-002,
1.058133333333333E+009,-1.339158043265343E-002,7.033859193325043E-002,-9.706766009330750E-001,6.801149249076843E-002,-1.339158043265343E-002,7.033859193325043E-002,-9.706766009330750E-001,6.801149249076843E-002,
1.066500000000000E+009,-2.011931501328945E-003,7.508364319801331E-002,-9.864373803138733E-001,1.004693880677223E-001,-2.011931501328945E-003,7.508364319801331E-002,-9.864373803138733E-001,1.004693880677223E-001,
1.074866666666667E+009,1.187619939446449E-002,7.451348006725311E-002,-9.818243980407715E-001,1.219887509942055E-001,1.187619939446449E-002,7.451348006725311E-002,-9.818243980407715E-001,1.219887509942055E-001,
1.083233333333334E+009,2.101385220885277E-002,6.703079491853714E-002,-9.656339287757874E-001,1.434163004159927E-001,2.101385220885277E-002,6.703079491853714E-002,-9.656339287757874E-001,1.434163004159927E-001,
1.091600000000000E+009,2.811254933476448E-002,5.734131485223770E-002,-9.482412338256836E-001,1.625402867794037E-001,2.811254933476448E-002,5.734131485223770E-002,-9.482412338256836E-001,1.625402867794037E-001,
1.099966666666667E+009,2.807813696563244E-002,4.435867816209793E-002,-9.447755217552185E-001,2.018691152334213E-001,2.807813696563244E-002,4.435867816209793E-002,-9.447755217552185E-001,2.018691152334213E-001,
1.108333333333334E+009,2.063368447124958E-002,3.667472675442696E-002,-9.443984627723694E-001,2.116088867187500E-001,2.063368447124958E-002,3.667472675442696E-002,-9.443984627723694E-001,2.116088867187500E-001,
1.116700000000000E+009,1.050756871700287E-002,3.352141007781029E-002,-9.371032714843750E-001,2.430614680051804E-001,1.050756871700287E-002,3.352141007781029E-002,-9.371032714843750E-001,2.430614680051804E-001,
1.125066666666667E+009,-4.848080279771239E-004,3.831613808870316E-002,-9.390282034873962E-001,2.604467570781708E-001,-4.848080279771239E-004,3.831613808870316E-002,-9.390282034873962E-001,2.604467570781708E-001,
1.133433333333334E+009,-8.270041085779667E-003,4.809565842151642E-002,-9.364901781082153E-001,3.055640161037445E-001,-8.270041085779667E-003,4.809565842151642E-002,-9.364901781082153E-001,3.055640161037445E-001,
1.141800000000000E+009,-9.663443081080914E-003,6.158490106463432E-002,-9.134093523025513E-001,3.200837075710297E-001,-9.663443081080914E-003,6.158490106463432E-002,-9.134093523025513E-001,3.200837075710297E-001,
1.150166666666667E+009,-5.758869810961187E-004,7.591457664966583E-002,-9.037416577339172E-001,3.213227689266205E-001,-5.758869810961187E-004,7.591457664966583E-002,-9.037416577339172E-001,3.213227689266205E-001,
1.158533333333334E+009,1.484765857458115E-002,8.320815116167069E-002,-8.984604477882385E-001,3.604864776134491E-001,1.484765857458115E-002,8.320815116167069E-002,-8.984604477882385E-001,3.604864776134491E-001,
1.166900000000000E+009,3.422265499830246E-002,8.372218161821365E-002,-8.832042217254639E-001,3.806489109992981E-001,3.422265499830246E-002,8.372218161821365E-002,-8.832042217254639E-001,3.806489109992981E-001,
1.175266666666667E+009,5.057249218225479E-002,7.348944246768951E-002,-8.786776661872864E-001,4.094353616237640E-001,5.057249218225479E-002,7.348944246768951E-002,-8.786776661872864E-001,4.094353616237640E-001,
1.183633333333334E+009,6.344427913427353E-002,5.928158015012741E-002,-8.773586750030518E-001,4.228007197380066E-001,6.344427913427353E-002,5.928158015012741E-002,-8.773586750030518E-001,4.228007197380066E-001,
1.192000000000000E+009,6.433165818452835E-002,4.072480648756027E-002,-8.644409775733948E-001,4.454369843006134E-001,6.433165818452835E-002,4.072480648756027E-002,-8.644409775733948E-001,4.454369843006134E-001,
1.200366666666667E+009,5.575514584779739E-002,2.474285848438740E-002,-8.529465198516846E-001,4.674074351787567E-001,5.575514584779739E-002,2.474285848438740E-002,-8.529465198516846E-001,4.674074351787567E-001,
1.208733333333334E+009,4.158695414662361E-002,1.596697792410851E-002,-8.456983566284180E-001,5.089847445487976E-001,4.158695414662361E-002,1.596697792410851E-002,-8.456983566284180E-001,5.089847445487976E-001,
1.217100000000000E+009,2.629397436976433E-002,1.750724576413631E-002,-8.425350785255432E-001,5.194810628890991E-001,2.629397436976433E-002,1.750724576413631E-002,-8.425350785255432E-001,5.194810628890991E-001,
1.225466666666667E+009,1.408175844699144E-002,2.822809480130673E-002,-8.095517158508301E-001,5.455194711685181E-001,1.408175844699144E-002,2.822809480130673E-002,-8.095517158508301E-001,5.455194711685181E-001,
1.233833333333334E+009,9.726576507091522E-003,4.475625231862068E-002,-8.043403625488281E-001,5.561239719390869E-001,9.726576507091522E-003,4.475625231862068E-002,-8.043403625488281E-001,5.561239719390869E-001,
1.242200000000000E+009,1.810527965426445E-002,5.907757580280304E-002,-7.796549201011658E-001,5.888378024101257E-001,1.810527965426445E-002,5.907757580280304E-002,-7.796549201011658E-001,5.888378024101257E-001,
1.250566666666667E+009,3.099058195948601E-002,6.932815164327622E-002,-7.582364082336426E-001,5.947429537773132E-001,3.099058195948601E-002,6.932815164327622E-002,-7.582364082336426E-001,5.947429537773132E-001,
1.258933333333334E+009,5.154767632484436E-002,6.933455914258957E-002,-7.525141835212708E-001,6.171715259552002E-001,5.154767632484436E-002,6.933455914258957E-002,-7.525141835212708E-001,6.171715259552002E-001,
1.267300000000000E+009,7.120551913976669E-002,5.870698019862175E-002,-7.343295812606812E-001,6.310528516769409E-001,7.120551913976669E-002,5.870698019862175E-002,-7.343295812606812E-001,6.310528516769409E-001,
1.275666666666667E+009,8.065161854028702E-002,4.073194786906242E-002,-7.217320799827576E-001,6.392467617988586E-001,8.065161854028702E-002,4.073194786906242E-002,-7.217320799827576E-001,6.392467617988586E-001,
1.284033333333334E+009,8.389972150325775E-002,2.003413066267967E-002,-7.082505226135254E-001,6.824006438255310E-001,8.389972150325775E-002,2.003413066267967E-002,-7.082505226135254E-001,6.824006438255310E-001,
1.292400000000000E+009,7.434776425361633E-002,1.341052004136145E-003,-6.958428025245667E-001,6.862902641296387E-001,7.434776425361633E-002,1.341052004136145E-003,-6.958428025245667E-001,6.862902641296387E-001,
1.300766666666667E+009,5.569160357117653E-002,-7.417189888656139E-003,-6.732308864593506E-001,7.110663056373596E-001,5.569160357117653E-002,-7.417189888656139E-003,-6.732308864593506E-001,7.110663056373596E-001,
1.309133333333334E+009,3.607572987675667E-002,-5.811383482068777E-003,-6.477875709533691E-001,7.258517742156982E-001,3.607572987675667E-002,-5.811383482068777E-003,-6.477875709533691E-001,7.258517742156982E-001,
1.317500000000000E+009,2.178067900240421E-002,5.879550240933895E-003,-6.355616450309753E-001,7.570984959602356E-001,2.178067900240421E-002,5.879550240933895E-003,-6.355616450309753E-001,7.570984959602356E-001,
1.325866666666667E+009,1.728976704180241E-002,2.292395941913128E-002,-6.154909729957581E-001,7.718986272811890E-001,1.728976704180241E-002,2.292395941913128E-002,-6.154909729957581E-001,7.718986272811890E-001,
1.334233333333334E+009,2.538798190653324E-002,4.067163169384003E-002,-5.971809625625610E-001,7.763528823852539E-001,2.538798190653324E-002,4.067163169384003E-002,-5.971809625625610E-001,7.763528823852539E-001,
1.342600000000000E+009,4.084853827953339E-002,4.952800646424294E-002,-5.799418687820435E-001,7.934355139732361E-001,4.084853827953339E-002,4.952800646424294E-002,-5.799418687820435E-001,7.934355139732361E-001,
1.350966666666667E+009,6.096646934747696E-002,4.689595475792885E-002,-5.546350479125977E-001,8.060525059700012E-001,6.096646934747696E-002,4.689595475792885E-002,-5.546350479125977E-001,8.060525059700012E-001,
1.359333333333334E+009,7.606083899736404E-002,3.320029750466347E-002,-5.417184829711914E-001,8.059641122817993E-001,7.606083899736404E-002,3.320029750466347E-002,-5.417184829711914E-001,8.059641122817993E-001,
1.367700000000000E+009,8.234153687953949E-002,1.322266273200512E-002,-5.084134340286255E-001,8.250669836997986E-001,8.234153687953949E-002,1.322266273200512E-002,-5.084134340286255E-001,8.250669836997986E-001,
1.376066666666667E+009,7.950725406408310E-002,-8.839871734380722E-003,-4.942509233951569E-001,8.355313539505005E-001,7.950725406408310E-002,-8.839871734380722E-003,-4.942509233951569E-001,8.355313539505005E-001,
1.384433333333334E+009,6.318116933107376E-002,-2.488476783037186E-002,-4.768646359443665E-001,8.664488196372986E-001,6.318116933107376E-002,-2.488476783037186E-002,-4.768646359443665E-001,8.664488196372986E-001,
1.392800000000000E+009,4.353401809930801E-002,-2.741910889744759E-002,-4.568779766559601E-001,8.770121932029724E-001,4.353401809930801E-002,-2.741910889744759E-002,-4.568779766559601E-001,8.770121932029724E-001,
1.401166666666667E+009,2.353345975279808E-002,-2.016721852123737E-002,-4.297203123569489E-001,8.827399015426636E-001,2.353345975279808E-002,-2.016721852123737E-002,-4.297203123569489E-001,8.827399015426636E-001,
1.409533333333334E+009,1.071491371840239E-002,-2.865009009838104E-003,-4.002771675586700E-001,8.971502780914307E-001,1.071491371840239E-002,-2.865009009838104E-003,-4.002771675586700E-001,8.971502780914307E-001,
1.417900000000000E+009,1.171218417584896E-002,2.053442783653736E-002,-3.806035220623016E-001,8.939270377159119E-001,1.171218417584896E-002,2.053442783653736E-002,-3.806035220623016E-001,8.939270377159119E-001,
1.426266666666667E+009,2.250574901700020E-002,3.744927421212196E-002,-3.439533412456513E-001,9.205384850502014E-001,2.250574901700020E-002,3.744927421212196E-002,-3.439533412456513E-001,9.205384850502014E-001,
1.434633333333334E+009,4.297360405325890E-002,4.576566070318222E-002,-3.343617022037506E-001,9.144343137741089E-001,4.297360405325890E-002,4.576566070318222E-002,-3.343617022037506E-001,9.144343137741089E-001,
1.443000000000000E+009,6.304430961608887E-002,4.308621585369110E-002,-3.107107281684876E-001,9.215379953384399E-001,6.304430961608887E-002,4.308621585369110E-002,-3.107107281684876E-001,9.215379953384399E-001,
1.451366666666667E+009,7.916489243507385E-002,2.709062024950981E-002,-2.841908335685730E-001,9.236930012702942E-001,7.916489243507385E-002,2.709062024950981E-002,-2.841908335685730E-001,9.236930012702942E-001,
1.459733333333334E+009,8.607774227857590E-002,6.458413787186146E-003,-2.600620985031128E-001,9.498996138572693E-001,8.607774227857590E-002,6.458413787186146E-003,-2.600620985031128E-001,9.498996138572693E-001,
