% Version 1.00
%
%freq[Hz],re:Trc1_S11,im:Trc1_S11,re:Trc2_S21,im:Trc2_S21,re:Trc3_S11,im:Trc3_S11,re:Trc4_S21,im:Trc4_S21,
6.900000000000000E+008,-5.403125658631325E-002,7.674584537744522E-002,-4.565223753452301E-001,-8.592061400413513E-001,-5.403125658631325E-002,7.674584537744522E-002,-4.565223753452301E-001,-8.592061400413513E-001,
6.983666666666666E+008,-4.444590210914612E-002,7.769214361906052E-002,-4.831593036651611E-001,-8.499492406845093E-001,-4.444590210914612E-002,7.769214361906052E-002,-4.831593036651611E-001,-8.499492406845093E-001,
7.067333333333334E+008,-3.694900870323181E-002,7.388408482074738E-002,-5.069004297256470E-001,-8.263229131698608E-001,-3.694900870323181E-002,7.388408482074738E-002,-5.069004297256470E-001,-8.263229131698608E-001,
7.151000000000000E+008,-3.390264883637428E-002,6.642876565456390E-002,-5.428583025932312E-001,-8.263478875160217E-001,-3.390264883637428E-002,6.642876565456390E-002,-5.428583025932312E-001,-8.263478875160217E-001,
7.234666666666666E+008,-3.391590714454651E-002,6.121597066521645E-002,-5.579549074172974E-001,-8.114764690399170E-001,-3.391590714454651E-002,6.121597066521645E-002,-5.579549074172974E-001,-8.114764690399170E-001,
7.318333333333334E+008,-3.926275670528412E-002,5.795076116919518E-002,-5.770039558410645E-001,-7.937068343162537E-001,-3.926275670528412E-002,5.795076116919518E-002,-5.770039558410645E-001,-7.937068343162537E-001,
7.402000000000000E+008,-4.353485256433487E-002,5.882883816957474E-002,-5.895760655403137E-001,-7.697495818138123E-001,-4.353485256433487E-002,5.882883816957474E-002,-5.895760655403137E-001,-7.697495818138123E-001,
7.485666666666666E+008,-4.764372482895851E-002,6.461045145988464E-002,-6.199176907539368E-001,-7.565258741378784E-001,-4.764372482895851E-002,6.461045145988464E-002,-6.199176907539368E-001,-7.565258741378784E-001,
7.569333333333334E+008,-5.049062147736549E-002,7.329808175563812E-002,-6.391801834106445E-001,-7.437860369682312E-001,-5.049062147736549E-002,7.329808175563812E-002,-6.391801834106445E-001,-7.437860369682312E-001,
7.653000000000000E+008,-4.454328492283821E-002,8.089229464530945E-002,-6.479969620704651E-001,-7.249118685722351E-001,-4.454328492283821E-002,8.089229464530945E-002,-6.479969620704651E-001,-7.249118685722351E-001,
7.736666666666666E+008,-3.769306838512421E-002,8.688820153474808E-002,-6.600681543350220E-001,-7.206879258155823E-001,-3.769306838512421E-002,8.688820153474808E-002,-6.600681543350220E-001,-7.206879258155823E-001,
7.820333333333334E+008,-2.816010266542435E-002,9.029321372509003E-002,-6.947749257087708E-001,-6.938466429710388E-001,-2.816010266542435E-002,9.029321372509003E-002,-6.947749257087708E-001,-6.938466429710388E-001,
7.904000000000000E+008,-1.718769222497940E-002,8.886580169200897E-002,-7.057901024818420E-001,-6.762011647224426E-001,-1.718769222497940E-002,8.886580169200897E-002,-7.057901024818420E-001,-6.762011647224426E-001,
7.987666666666666E+008,-1.115661393851042E-002,8.327508717775345E-002,-7.112780213356018E-001,-6.615529656410217E-001,-1.115661393851042E-002,8.327508717775345E-002,-7.112780213356018E-001,-6.615529656410217E-001,
8.071333333333334E+008,-7.994973100721836E-003,7.690393179655075E-002,-7.389240860939026E-001,-6.296156048774719E-001,-7.994973100721836E-003,7.690393179655075E-002,-7.389240860939026E-001,-6.296156048774719E-001,
8.155000000000000E+008,-9.270816110074520E-003,6.863488256931305E-002,-7.662065029144287E-001,-6.199453473091126E-001,-9.270816110074520E-003,6.863488256931305E-002,-7.662065029144287E-001,-6.199453473091126E-001,
8.238666666666666E+008,-1.444333791732788E-002,6.587596237659454E-002,-7.737625837326050E-001,-5.971572399139404E-001,-1.444333791732788E-002,6.587596237659454E-002,-7.737625837326050E-001,-5.971572399139404E-001,
8.322333333333334E+008,-1.873982138931751E-002,6.590490788221359E-002,-7.850895524024963E-001,-5.787641406059265E-001,-1.873982138931751E-002,6.590490788221359E-002,-7.850895524024963E-001,-5.787641406059265E-001,
8.406000000000000E+008,-2.265229634940624E-002,6.795194745063782E-002,-7.979241609573364E-001,-5.555009245872498E-001,-2.265229634940624E-002,6.795194745063782E-002,-7.979241609573364E-001,-5.555009245872498E-001,
8.489666666666668E+008,-2.334854193031788E-002,7.780010998249054E-002,-8.106264472007752E-001,-5.266976356506348E-001,-2.334854193031788E-002,7.780010998249054E-002,-8.106264472007752E-001,-5.266976356506348E-001,
8.573333333333334E+008,-2.094204723834992E-002,8.426430076360703E-002,-8.138236999511719E-001,-4.961052834987640E-001,-2.094204723834992E-002,8.426430076360703E-002,-8.138236999511719E-001,-4.961052834987640E-001,
8.657000000000000E+008,-1.581045426428318E-002,9.062982350587845E-002,-8.415154218673706E-001,-5.011969208717346E-001,-1.581045426428318E-002,9.062982350587845E-002,-8.415154218673706E-001,-5.011969208717346E-001,
8.740666666666668E+008,-6.399180740118027E-003,9.463153034448624E-002,-8.485873937606812E-001,-4.765209853649139E-001,-6.399180740118027E-003,9.463153034448624E-002,-8.485873937606812E-001,-4.765209853649139E-001,
8.824333333333334E+008,2.199965296313167E-003,9.561683237552643E-002,-8.665852546691895E-001,-4.524677097797394E-001,2.199965296313167E-003,9.561683237552643E-002,-8.665852546691895E-001,-4.524677097797394E-001,
8.908000000000000E+008,1.104834862053394E-002,9.153036028146744E-002,-8.809947967529297E-001,-4.353212714195252E-001,1.104834862053394E-002,9.153036028146744E-002,-8.809947967529297E-001,-4.353212714195252E-001,
8.991666666666668E+008,1.739466935396195E-002,8.446358889341354E-002,-8.819774985313416E-001,-4.081501960754395E-001,1.739466935396195E-002,8.446358889341354E-002,-8.819774985313416E-001,-4.081501960754395E-001,
9.075333333333334E+008,1.931506395339966E-002,7.586377114057541E-002,-8.968526124954224E-001,-3.833170831203461E-001,1.931506395339966E-002,7.586377114057541E-002,-8.968526124954224E-001,-3.833170831203461E-001,
9.159000000000000E+008,1.725236698985100E-002,6.931947916746140E-002,-9.195163249969482E-001,-3.592283427715302E-001,1.725236698985100E-002,6.931947916746140E-002,-9.195163249969482E-001,-3.592283427715302E-001,
9.242666666666668E+008,1.153316255658865E-002,6.810670346021652E-002,-9.124221801757813E-001,-3.368947505950928E-001,1.153316255658865E-002,6.810670346021652E-002,-9.124221801757813E-001,-3.368947505950928E-001,
9.326333333333334E+008,7.226326502859592E-003,6.897979974746704E-002,-9.292714595794678E-001,-3.218012750148773E-001,7.226326502859592E-003,6.897979974746704E-002,-9.292714595794678E-001,-3.218012750148773E-001,
9.410000000000000E+008,3.324601100757718E-003,7.161112874746323E-002,-9.395202398300171E-001,-2.860853970050812E-001,3.324601100757718E-003,7.161112874746323E-002,-9.395202398300171E-001,-2.860853970050812E-001,
9.493666666666668E+008,1.710891840048134E-003,7.931052148342133E-002,-9.450884461402893E-001,-2.553329467773438E-001,1.710891840048134E-003,7.931052148342133E-002,-9.450884461402893E-001,-2.553329467773438E-001,
9.577333333333334E+008,5.383322015404701E-003,8.819960057735443E-002,-9.516497850418091E-001,-2.419536709785461E-001,5.383322015404701E-003,8.819960057735443E-002,-9.516497850418091E-001,-2.419536709785461E-001,
9.661000000000000E+008,1.350736618041992E-002,9.401124715805054E-002,-9.531866908073425E-001,-1.995160728693008E-001,1.350736618041992E-002,9.401124715805054E-002,-9.531866908073425E-001,-1.995160728693008E-001,
9.744666666666668E+008,2.340576797723770E-002,9.337817132472992E-002,-9.508324861526489E-001,-1.903844922780991E-001,2.340576797723770E-002,9.337817132472992E-002,-9.508324861526489E-001,-1.903844922780991E-001,
9.828333333333334E+008,3.277840465307236E-002,9.387919306755066E-002,-9.672809839248657E-001,-1.704391986131668E-001,3.277840465307236E-002,9.387919306755066E-002,-9.672809839248657E-001,-1.704391986131668E-001,
9.912000000000000E+008,4.362920299172401E-002,8.690945804119110E-002,-9.652464389801025E-001,-1.481282562017441E-001,4.362920299172401E-002,8.690945804119110E-002,-9.652464389801025E-001,-1.481282562017441E-001,
9.995666666666668E+008,4.800173267722130E-002,7.846849411725998E-002,-9.791199564933777E-001,-1.120871454477310E-001,4.800173267722130E-002,7.846849411725998E-002,-9.791199564933777E-001,-1.120871454477310E-001,
1.007933333333333E+009,5.228478461503983E-002,6.762297451496124E-002,-9.932298064231873E-001,-9.549621492624283E-002,5.228478461503983E-002,6.762297451496124E-002,-9.932298064231873E-001,-9.549621492624283E-002,
1.016300000000000E+009,4.677521064877510E-002,6.010314822196960E-002,-9.806796908378601E-001,-6.883028149604797E-002,4.677521064877510E-002,6.010314822196960E-002,-9.806796908378601E-001,-6.883028149604797E-002,
1.024666666666667E+009,3.940278291702271E-002,5.522439628839493E-002,-9.775651097297669E-001,-4.226469621062279E-002,3.940278291702271E-002,5.522439628839493E-002,-9.775651097297669E-001,-4.226469621062279E-002,
1.033033333333333E+009,3.455919027328491E-002,5.852607637643814E-002,-9.846411943435669E-001,-1.571325771510601E-002,3.455919027328491E-002,5.852607637643814E-002,-9.846411943435669E-001,-1.571325771510601E-002,
1.041400000000000E+009,2.765711396932602E-002,6.246118620038033E-002,-9.850178360939026E-001,5.829764995723963E-003,2.765711396932602E-002,6.246118620038033E-002,-9.850178360939026E-001,5.829764995723963E-003,
1.049766666666667E+009,2.991680800914764E-002,7.066294550895691E-002,-9.718739986419678E-001,4.273203387856484E-002,2.991680800914764E-002,7.066294550895691E-002,-9.718739986419678E-001,4.273203387856484E-002,
1.058133333333333E+009,3.388414159417152E-002,7.913569360971451E-002,-9.738585352897644E-001,6.489405781030655E-002,3.388414159417152E-002,7.913569360971451E-002,-9.738585352897644E-001,6.489405781030655E-002,
1.066500000000000E+009,4.430320858955383E-002,8.272796124219894E-002,-9.880232810974121E-001,9.879937767982483E-002,4.430320858955383E-002,8.272796124219894E-002,-9.880232810974121E-001,9.879937767982483E-002,
1.074866666666667E+009,5.737329646945000E-002,8.077222853899002E-002,-9.823418259620667E-001,1.189628839492798E-001,5.737329646945000E-002,8.077222853899002E-002,-9.823418259620667E-001,1.189628839492798E-001,
1.083233333333334E+009,6.591474264860153E-002,7.225344330072403E-002,-9.665803909301758E-001,1.407497972249985E-001,6.591474264860153E-002,7.225344330072403E-002,-9.665803909301758E-001,1.407497972249985E-001,
1.091600000000000E+009,7.268874347209930E-002,6.087492778897286E-002,-9.499486088752747E-001,1.600960940122604E-001,7.268874347209930E-002,6.087492778897286E-002,-9.499486088752747E-001,1.600960940122604E-001,
1.099966666666667E+009,7.221765071153641E-002,4.674305394291878E-002,-9.465388059616089E-001,1.985688060522080E-001,7.221765071153641E-002,4.674305394291878E-002,-9.465388059616089E-001,1.985688060522080E-001,
1.108333333333334E+009,6.462136656045914E-002,3.758569806814194E-002,-9.467808604240418E-001,2.066669315099716E-001,6.462136656045914E-002,3.758569806814194E-002,-9.467808604240418E-001,2.066669315099716E-001,
1.116700000000000E+009,5.452799797058106E-002,3.305453434586525E-002,-9.405578970909119E-001,2.405834645032883E-001,5.452799797058106E-002,3.305453434586525E-002,-9.405578970909119E-001,2.405834645032883E-001,
1.125066666666667E+009,4.342897608876228E-002,3.614439442753792E-002,-9.415364265441895E-001,2.580403685569763E-001,4.342897608876228E-002,3.614439442753792E-002,-9.415364265441895E-001,2.580403685569763E-001,
1.133433333333334E+009,3.515709191560745E-002,4.470874741673470E-002,-9.393305778503418E-001,3.026143312454224E-001,3.515709191560745E-002,4.470874741673470E-002,-9.393305778503418E-001,3.026143312454224E-001,
1.141800000000000E+009,3.316711634397507E-002,5.710843950510025E-002,-9.168322086334229E-001,3.180409371852875E-001,3.316711634397507E-002,5.710843950510025E-002,-9.168322086334229E-001,3.180409371852875E-001,
1.150166666666667E+009,4.097808897495270E-002,7.084328681230545E-002,-9.079607129096985E-001,3.198255598545075E-001,4.097808897495270E-002,7.084328681230545E-002,-9.079607129096985E-001,3.198255598545075E-001,
1.158533333333334E+009,5.605881661176682E-002,7.733785361051559E-002,-9.004920125007629E-001,3.599127829074860E-001,5.605881661176682E-002,7.733785361051559E-002,-9.004920125007629E-001,3.599127829074860E-001,
1.166900000000000E+009,7.436488568782806E-002,7.688236981630325E-002,-8.836790919303894E-001,3.804874718189240E-001,7.436488568782806E-002,7.688236981630325E-002,-8.836790919303894E-001,3.804874718189240E-001,
1.175266666666667E+009,8.922772109508514E-002,6.616130471229553E-002,-8.784528970718384E-001,4.090051352977753E-001,8.922772109508514E-002,6.616130471229553E-002,-8.784528970718384E-001,4.090051352977753E-001,
1.183633333333334E+009,1.009042263031006E-001,5.113527923822403E-002,-8.769503235816956E-001,4.210483431816101E-001,1.009042263031006E-001,5.113527923822403E-002,-8.769503235816956E-001,4.210483431816101E-001,
1.192000000000000E+009,1.009203195571899E-001,3.199756518006325E-002,-8.651633262634277E-001,4.435756206512451E-001,1.009203195571899E-001,3.199756518006325E-002,-8.651633262634277E-001,4.435756206512451E-001,
1.200366666666667E+009,9.160290658473969E-002,1.494369469583035E-002,-8.532207608222961E-001,4.653691053390503E-001,9.160290658473969E-002,1.494369469583035E-002,-8.532207608222961E-001,4.653691053390503E-001,
1.208733333333334E+009,7.688901573419571E-002,5.054505541920662E-003,-8.467547297477722E-001,5.080478191375732E-001,7.688901573419571E-002,5.054505541920662E-003,-8.467547297477722E-001,5.080478191375732E-001,
1.217100000000000E+009,6.075197830796242E-002,5.200339015573263E-003,-8.432739377021790E-001,5.175365209579468E-001,6.075197830796242E-002,5.200339015573263E-003,-8.432739377021790E-001,5.175365209579468E-001,
1.225466666666667E+009,4.854406416416168E-002,1.504633203148842E-002,-8.113541603088379E-001,5.433257222175598E-001,4.854406416416168E-002,1.504633203148842E-002,-8.113541603088379E-001,5.433257222175598E-001,
1.233833333333334E+009,4.348226636648178E-002,3.097925521433353E-002,-8.061304092407227E-001,5.556868910789490E-001,4.348226636648178E-002,3.097925521433353E-002,-8.061304092407227E-001,5.556868910789490E-001,
1.242200000000000E+009,5.105595663189888E-002,4.472021758556366E-002,-7.805479764938355E-001,5.893983840942383E-001,5.105595663189888E-002,4.472021758556366E-002,-7.805479764938355E-001,5.893983840942383E-001,
1.250566666666667E+009,6.327109038829804E-002,5.441816523671150E-002,-7.592918276786804E-001,5.951986908912659E-001,6.327109038829804E-002,5.441816523671150E-002,-7.592918276786804E-001,5.951986908912659E-001,
1.258933333333334E+009,8.273782581090927E-002,5.474214255809784E-002,-7.533753514289856E-001,6.175242662429810E-001,8.273782581090927E-002,5.474214255809784E-002,-7.533753514289856E-001,6.175242662429810E-001,
1.267300000000000E+009,1.015288978815079E-001,4.390572011470795E-002,-7.342486381530762E-001,6.314395070075989E-001,1.015288978815079E-001,4.390572011470795E-002,-7.342486381530762E-001,6.314395070075989E-001,
1.275666666666667E+009,1.100131869316101E-001,2.592939324676991E-002,-7.217842936515808E-001,6.388359665870667E-001,1.100131869316101E-001,2.592939324676991E-002,-7.217842936515808E-001,6.388359665870667E-001,
1.284033333333334E+009,1.116979792714119E-001,4.600093234330416E-003,-7.062456011772156E-001,6.812704205513001E-001,1.116979792714119E-001,4.600093234330416E-003,-7.062456011772156E-001,6.812704205513001E-001,
1.292400000000000E+009,1.013013795018196E-001,-1.455109845846891E-002,-6.948946118354797E-001,6.851202249526978E-001,1.013013795018196E-001,-1.455109845846891E-002,-6.948946118354797E-001,6.851202249526978E-001,
1.300766666666667E+009,8.155987411737442E-002,-2.377874776721001E-002,-6.731431484222412E-001,7.093344926834106E-001,8.155987411737442E-002,-2.377874776721001E-002,-6.731431484222412E-001,7.093344926834106E-001,
1.309133333333334E+009,6.094102934002876E-002,-2.329171635210514E-002,-6.487802267074585E-001,7.246770262718201E-001,6.094102934002876E-002,-2.329171635210514E-002,-6.487802267074585E-001,7.246770262718201E-001,
1.317500000000000E+009,4.616896435618401E-002,-1.195632107555866E-002,-6.365308165550232E-001,7.558459043502808E-001,4.616896435618401E-002,-1.195632107555866E-002,-6.365308165550232E-001,7.558459043502808E-001,
1.325866666666667E+009,4.109000414609909E-002,4.446135368198156E-003,-6.169584393501282E-001,7.708547711372376E-001,4.109000414609909E-002,4.446135368198156E-003,-6.169584393501282E-001,7.708547711372376E-001,
1.334233333333334E+009,4.861348494887352E-002,2.165431343019009E-002,-5.978282094001770E-001,7.772010564804077E-001,4.861348494887352E-002,2.165431343019009E-002,-5.978282094001770E-001,7.772010564804077E-001,
1.342600000000000E+009,6.343004107475281E-002,3.058410994708538E-002,-5.802854895591736E-001,7.951081395149231E-001,6.343004107475281E-002,3.058410994708538E-002,-5.802854895591736E-001,7.951081395149231E-001,
1.350966666666667E+009,8.277501165866852E-002,2.791960723698139E-002,-5.533161759376526E-001,8.076052665710449E-001,8.277501165866852E-002,2.791960723698139E-002,-5.533161759376526E-001,8.076052665710449E-001,
1.359333333333334E+009,9.710177034139633E-002,1.493137795478106E-002,-5.399798750877380E-001,8.064662218093872E-001,9.710177034139633E-002,1.493137795478106E-002,-5.399798750877380E-001,8.064662218093872E-001,
1.367700000000000E+009,1.025461256504059E-001,-4.394684918224812E-003,-5.068138837814331E-001,8.254588246345520E-001,1.025461256504059E-001,-4.394684918224812E-003,-5.068138837814331E-001,8.254588246345520E-001,
1.376066666666667E+009,9.846083074808121E-002,-2.645434625446796E-002,-4.922868013381958E-001,8.345553278923035E-001,9.846083074808121E-002,-2.645434625446796E-002,-4.922868013381958E-001,8.345553278923035E-001,
1.384433333333334E+009,8.128787577152252E-002,-4.179612919688225E-002,-4.775577783584595E-001,8.659268021583557E-001,8.128787577152252E-002,-4.179612919688225E-002,-4.775577783584595E-001,8.659268021583557E-001,
1.392800000000000E+009,6.038479134440422E-002,-4.449697583913803E-002,-4.568837881088257E-001,8.740571141242981E-001,6.038479134440422E-002,-4.449697583913803E-002,-4.568837881088257E-001,8.740571141242981E-001,
1.401166666666667E+009,3.972367569804192E-002,-3.776829689741135E-002,-4.297266304492950E-001,8.821377158164978E-001,3.972367569804192E-002,-3.776829689741135E-002,-4.297266304492950E-001,8.821377158164978E-001,
1.409533333333334E+009,2.557027526199818E-002,-2.096220292150974E-002,-4.001927375793457E-001,8.975359201431274E-001,2.557027526199818E-002,-2.096220292150974E-002,-4.001927375793457E-001,8.975359201431274E-001,
1.417900000000000E+009,2.614922821521759E-002,1.613868516869843E-003,-3.806097507476807E-001,8.937071561813355E-001,2.614922821521759E-002,1.613868516869843E-003,-3.806097507476807E-001,8.937071561813355E-001,
1.426266666666667E+009,3.641955554485321E-002,1.826783269643784E-002,-3.436114788055420E-001,9.207018613815308E-001,3.641955554485321E-002,1.826783269643784E-002,-3.436114788055420E-001,9.207018613815308E-001,
1.434633333333334E+009,5.642887577414513E-002,2.656920813024044E-002,-3.335688114166260E-001,9.145978689193726E-001,5.642887577414513E-002,2.656920813024044E-002,-3.335688114166260E-001,9.145978689193726E-001,
1.443000000000000E+009,7.643134891986847E-002,2.388340607285500E-002,-3.092311322689056E-001,9.221988916397095E-001,7.643134891986847E-002,2.388340607285500E-002,-3.092311322689056E-001,9.221988916397095E-001,
1.451366666666667E+009,9.196857362985611E-002,8.683662861585617E-003,-2.829231619834900E-001,9.227917790412903E-001,9.196857362985611E-002,8.683662861585617E-003,-2.829231619834900E-001,9.227917790412903E-001,
1.459733333333334E+009,9.807601571083069E-002,-1.115159504115582E-002,-2.576194107532501E-001,9.493051171302795E-001,9.807601571083069E-002,-1.115159504115582E-002,-2.576194107532501E-001,9.493051171302795E-001,
