% Version 1.00
%
%freq[Hz],re:Trc1_S11,im:Trc1_S11,re:Trc2_S21,im:Trc2_S21,re:Trc3_S11,im:Trc3_S11,re:Trc4_S21,im:Trc4_S21,
6.900000000000000E+008,-4.422361031174660E-002,3.461092710494995E-002,-4.978842437267304E-001,-8.554263710975647E-001,-4.422361031174660E-002,3.461092710494995E-002,-4.978842437267304E-001,-8.554263710975647E-001,
6.983666666666666E+008,-3.617343679070473E-002,3.518270328640938E-002,-5.232194066047669E-001,-8.444774150848389E-001,-3.617343679070473E-002,3.518270328640938E-002,-5.232194066047669E-001,-8.444774150848389E-001,
7.067333333333334E+008,-3.008365817368031E-002,3.079291619360447E-002,-5.459241867065430E-001,-8.190009593963623E-001,-3.008365817368031E-002,3.079291619360447E-002,-5.459241867065430E-001,-8.190009593963623E-001,
7.151000000000000E+008,-2.955617010593414E-002,2.310910448431969E-002,-5.807211995124817E-001,-8.168965578079224E-001,-2.955617010593414E-002,2.310910448431969E-002,-5.807211995124817E-001,-8.168965578079224E-001,
7.234666666666666E+008,-3.137668222188950E-002,1.770915463566780E-002,-5.942459106445313E-001,-8.015478253364563E-001,-3.137668222188950E-002,1.770915463566780E-002,-5.942459106445313E-001,-8.015478253364563E-001,
7.318333333333334E+008,-3.877026960253716E-002,1.508765853941441E-002,-6.115880608558655E-001,-7.845345139503479E-001,-3.877026960253716E-002,1.508765853941441E-002,-6.115880608558655E-001,-7.845345139503479E-001,
7.402000000000000E+008,-4.516888409852982E-002,1.661174930632114E-002,-6.221489310264587E-001,-7.592752575874329E-001,-4.516888409852982E-002,1.661174930632114E-002,-6.221489310264587E-001,-7.592752575874329E-001,
7.485666666666666E+008,-5.076399073004723E-002,2.321580424904823E-002,-6.523935794830322E-001,-7.467691898345947E-001,-5.076399073004723E-002,2.321580424904823E-002,-6.523935794830322E-001,-7.467691898345947E-001,
7.569333333333334E+008,-5.494037643074989E-002,3.266748785972595E-002,-6.707463860511780E-001,-7.333526611328125E-001,-5.494037643074989E-002,3.266748785972595E-002,-6.707463860511780E-001,-7.333526611328125E-001,
7.653000000000000E+008,-4.982903599739075E-002,4.142157733440399E-002,-6.788364052772522E-001,-7.140835523605347E-001,-4.982903599739075E-002,4.142157733440399E-002,-6.788364052772522E-001,-7.140835523605347E-001,
7.736666666666666E+008,-4.367578029632568E-002,4.805348441004753E-002,-6.915573477745056E-001,-7.104648351669312E-001,-4.367578029632568E-002,4.805348441004753E-002,-6.915573477745056E-001,-7.104648351669312E-001,
7.820333333333334E+008,-3.505486622452736E-002,5.215032771229744E-002,-7.253249883651733E-001,-6.824454069137573E-001,-3.505486622452736E-002,5.215032771229744E-002,-7.253249883651733E-001,-6.824454069137573E-001,
7.904000000000000E+008,-2.505667880177498E-002,5.107241496443749E-002,-7.342864871025085E-001,-6.637858152389526E-001,-2.505667880177498E-002,5.107241496443749E-002,-7.342864871025085E-001,-6.637858152389526E-001,
7.987666666666666E+008,-2.072211541235447E-002,4.581168666481972E-002,-7.399791479110718E-001,-6.480159759521484E-001,-2.072211541235447E-002,4.581168666481972E-002,-7.399791479110718E-001,-6.480159759521484E-001,
8.071333333333334E+008,-1.854892633855343E-002,3.922590985894203E-002,-7.661969065666199E-001,-6.161350607872009E-001,-1.854892633855343E-002,3.922590985894203E-002,-7.661969065666199E-001,-6.161350607872009E-001,
8.155000000000000E+008,-2.155617251992226E-002,3.213850408792496E-002,-7.927438616752625E-001,-6.052879095077515E-001,-2.155617251992226E-002,3.213850408792496E-002,-7.927438616752625E-001,-6.052879095077515E-001,
8.238666666666666E+008,-2.832529880106449E-002,2.993895113468170E-002,-7.992282509803772E-001,-5.821550488471985E-001,-2.832529880106449E-002,2.993895113468170E-002,-7.992282509803772E-001,-5.821550488471985E-001,
8.322333333333334E+008,-3.416123613715172E-002,3.110100887715817E-002,-8.083679676055908E-001,-5.641620159149170E-001,-3.416123613715172E-002,3.110100887715817E-002,-8.083679676055908E-001,-5.641620159149170E-001,
8.406000000000000E+008,-3.920711949467659E-002,3.412396833300591E-002,-8.206275105476379E-001,-5.418148040771484E-001,-3.920711949467659E-002,3.412396833300591E-002,-8.206275105476379E-001,-5.418148040771484E-001,
8.489666666666668E+008,-4.120841249823570E-002,4.505309090018272E-002,-8.327856659889221E-001,-5.127946138381958E-001,-4.120841249823570E-002,4.505309090018272E-002,-8.327856659889221E-001,-5.127946138381958E-001,
8.573333333333334E+008,-3.943722322583199E-002,5.276003107428551E-002,-8.349705338478088E-001,-4.823135137557983E-001,-3.943722322583199E-002,5.276003107428551E-002,-8.349705338478088E-001,-4.823135137557983E-001,
8.657000000000000E+008,-3.432020172476769E-002,6.031240895390511E-002,-8.629233837127686E-001,-4.868484437465668E-001,-3.432020172476769E-002,6.031240895390511E-002,-8.629233837127686E-001,-4.868484437465668E-001,
8.740666666666668E+008,-2.540790662169457E-002,6.529696285724640E-002,-8.691528439521790E-001,-4.616798162460327E-001,-2.540790662169457E-002,6.529696285724640E-002,-8.691528439521790E-001,-4.616798162460327E-001,
8.824333333333334E+008,-1.721934229135513E-002,6.665673106908798E-002,-8.874502182006836E-001,-4.375048279762268E-001,-1.721934229135513E-002,6.665673106908798E-002,-8.874502182006836E-001,-4.375048279762268E-001,
8.908000000000000E+008,-9.157767519354820E-003,6.305691599845886E-002,-9.011389613151550E-001,-4.202224016189575E-001,-9.157767519354820E-003,6.305691599845886E-002,-9.011389613151550E-001,-4.202224016189575E-001,
8.991666666666668E+008,-3.724755253642798E-003,5.704697221517563E-002,-9.013056159019470E-001,-3.930117785930634E-001,-3.724755253642798E-003,5.704697221517563E-002,-9.013056159019470E-001,-3.930117785930634E-001,
9.075333333333334E+008,-3.520470811054111E-003,4.938410595059395E-002,-9.155778288841248E-001,-3.679736852645874E-001,-3.520470811054111E-003,4.938410595059395E-002,-9.155778288841248E-001,-3.679736852645874E-001,
9.159000000000000E+008,-6.386186461895704E-003,4.356151819229126E-002,-9.369568824768066E-001,-3.433448076248169E-001,-6.386186461895704E-003,4.356151819229126E-002,-9.369568824768066E-001,-3.433448076248169E-001,
9.242666666666668E+008,-1.331481710076332E-002,4.366106167435646E-002,-9.284999966621399E-001,-3.213747441768646E-001,-1.331481710076332E-002,4.366106167435646E-002,-9.284999966621399E-001,-3.213747441768646E-001,
9.326333333333334E+008,-1.865667663514614E-002,4.575007781386375E-002,-9.445688724517822E-001,-3.077936172485352E-001,-1.865667663514614E-002,4.575007781386375E-002,-9.445688724517822E-001,-3.077936172485352E-001,
9.410000000000000E+008,-2.305675484240055E-002,4.995106533169746E-002,-9.549366235733032E-001,-2.720895409584045E-001,-2.305675484240055E-002,4.995106533169746E-002,-9.549366235733032E-001,-2.720895409584045E-001,
9.493666666666668E+008,-2.490233071148396E-002,5.907081440091133E-002,-9.599496126174927E-001,-2.416108995676041E-001,-2.490233071148396E-002,5.907081440091133E-002,-9.599496126174927E-001,-2.416108995676041E-001,
9.577333333333334E+008,-2.162643708288670E-002,6.863918900489807E-002,-9.659975767135620E-001,-2.279551625251770E-001,-2.162643708288670E-002,6.863918900489807E-002,-9.659975767135620E-001,-2.279551625251770E-001,
9.661000000000000E+008,-1.305368356406689E-002,7.510527223348618E-002,-9.675329327583313E-001,-1.860016286373138E-001,-1.305368356406689E-002,7.510527223348618E-002,-9.675329327583313E-001,-1.860016286373138E-001,
9.744666666666668E+008,-2.483422169461846E-003,7.530881464481354E-002,-9.654067754745483E-001,-1.754608303308487E-001,-2.483422169461846E-003,7.530881464481354E-002,-9.654067754745483E-001,-1.754608303308487E-001,
9.828333333333334E+008,6.525893229991198E-003,7.616559416055679E-002,-9.809597134590149E-001,-1.556312739849091E-001,6.525893229991198E-003,7.616559416055679E-002,-9.809597134590149E-001,-1.556312739849091E-001,
9.912000000000000E+008,1.693219877779484E-002,6.964321434497833E-002,-9.784397482872009E-001,-1.337835788726807E-001,1.693219877779484E-002,6.964321434497833E-002,-9.784397482872009E-001,-1.337835788726807E-001,
9.995666666666668E+008,2.061584219336510E-002,6.184746325016022E-002,-9.914409518241882E-001,-9.684000164270401E-002,2.061584219336510E-002,6.184746325016022E-002,-9.914409518241882E-001,-9.684000164270401E-002,
1.007933333333333E+009,2.405178919434547E-002,5.241686478257179E-002,-1.004691481590271E+000,-7.922505587339401E-002,2.405178919434547E-002,5.241686478257179E-002,-1.004691481590271E+000,-7.922505587339401E-002,
1.016300000000000E+009,1.787564903497696E-002,4.654946550726891E-002,-9.910026192665100E-001,-5.311920121312141E-002,1.787564903497696E-002,4.654946550726891E-002,-9.910026192665100E-001,-5.311920121312141E-002,
1.024666666666667E+009,1.009865570813417E-002,4.284529760479927E-002,-9.869019985198975E-001,-2.703870087862015E-002,1.009865570813417E-002,4.284529760479927E-002,-9.869019985198975E-001,-2.703870087862015E-002,
1.033033333333333E+009,4.907133523374796E-003,4.759318009018898E-002,-9.937017560005188E-001,-7.579385419376195E-004,4.907133523374796E-003,4.759318009018898E-002,-9.937017560005188E-001,-7.579385419376195E-004,
1.041400000000000E+009,-1.971586141735315E-003,5.259912088513374E-002,-9.933155775070190E-001,2.015393041074276E-002,-1.971586141735315E-003,5.259912088513374E-002,-9.933155775070190E-001,2.015393041074276E-002,
1.049766666666667E+009,8.179032010957599E-004,6.207223981618881E-002,-9.795187115669251E-001,5.592234432697296E-002,8.179032010957599E-004,6.207223981618881E-002,-9.795187115669251E-001,5.592234432697296E-002,
1.058133333333333E+009,4.706605337560177E-003,7.091123610734940E-002,-9.813928008079529E-001,7.793378084897995E-002,4.706605337560177E-003,7.091123610734940E-002,-9.813928008079529E-001,7.793378084897995E-002,
1.066500000000000E+009,1.563689298927784E-002,7.489304244518280E-002,-9.964231848716736E-001,1.117247939109802E-001,1.563689298927784E-002,7.489304244518280E-002,-9.964231848716736E-001,1.117247939109802E-001,
1.074866666666667E+009,2.882695384323597E-002,7.344206422567368E-002,-9.902480244636536E-001,1.320736259222031E-001,2.882695384323597E-002,7.344206422567368E-002,-9.902480244636536E-001,1.320736259222031E-001,
1.083233333333334E+009,3.723399341106415E-002,6.518587470054627E-002,-9.736819267272949E-001,1.527691781520844E-001,3.723399341106415E-002,6.518587470054627E-002,-9.736819267272949E-001,1.527691781520844E-001,
1.091600000000000E+009,4.356692731380463E-002,5.449451133608818E-002,-9.565014839172363E-001,1.727708429098129E-001,4.356692731380463E-002,5.449451133608818E-002,-9.565014839172363E-001,1.727708429098129E-001,
1.099966666666667E+009,4.273443296551704E-002,4.102318361401558E-002,-9.519318342208862E-001,2.106366902589798E-001,4.273443296551704E-002,4.102318361401558E-002,-9.519318342208862E-001,2.106366902589798E-001,
1.108333333333334E+009,3.472268953919411E-002,3.312216699123383E-002,-9.518142938613892E-001,2.186269164085388E-001,3.472268953919411E-002,3.312216699123383E-002,-9.518142938613892E-001,2.186269164085388E-001,
1.116700000000000E+009,2.441675029695034E-002,2.998331002891064E-002,-9.448406696319580E-001,2.522093951702118E-001,2.441675029695034E-002,2.998331002891064E-002,-9.448406696319580E-001,2.522093951702118E-001,
1.125066666666667E+009,1.331001706421375E-002,3.471183776855469E-002,-9.456517100334168E-001,2.686229348182678E-001,1.331001706421375E-002,3.471183776855469E-002,-9.456517100334168E-001,2.686229348182678E-001,
1.133433333333334E+009,5.405110307037830E-003,4.468562081456184E-002,-9.435198307037354E-001,3.135693967342377E-001,5.405110307037830E-003,4.468562081456184E-002,-9.435198307037354E-001,3.135693967342377E-001,
1.141800000000000E+009,3.846144070848823E-003,5.822863802313805E-002,-9.208591580390930E-001,3.281419277191162E-001,3.846144070848823E-003,5.822863802313805E-002,-9.208591580390930E-001,3.281419277191162E-001,
1.150166666666667E+009,1.247706916183233E-002,7.260192930698395E-002,-9.120023250579834E-001,3.289208412170410E-001,1.247706916183233E-002,7.260192930698395E-002,-9.120023250579834E-001,3.289208412170410E-001,
1.158533333333334E+009,2.780753560364246E-002,7.969729602336884E-002,-9.050840139389038E-001,3.692311048507690E-001,2.780753560364246E-002,7.969729602336884E-002,-9.050840139389038E-001,3.692311048507690E-001,
1.166900000000000E+009,4.654321447014809E-002,7.972196489572525E-002,-8.887629508972168E-001,3.894109725952148E-001,4.654321447014809E-002,7.972196489572525E-002,-8.887629508972168E-001,3.894109725952148E-001,
1.175266666666667E+009,6.213213130831718E-002,6.889521330595017E-002,-8.833175301551819E-001,4.187169671058655E-001,6.213213130831718E-002,6.889521330595017E-002,-8.833175301551819E-001,4.187169671058655E-001,
1.183633333333334E+009,7.385067641735077E-002,5.409729853272438E-002,-8.817352056503296E-001,4.306911230087280E-001,7.385067641735077E-002,5.409729853272438E-002,-8.817352056503296E-001,4.306911230087280E-001,
1.192000000000000E+009,7.382114976644516E-002,3.526956960558891E-002,-8.692076206207275E-001,4.534788131713867E-001,7.382114976644516E-002,3.526956960558891E-002,-8.692076206207275E-001,4.534788131713867E-001,
1.200366666666667E+009,6.455178558826447E-002,1.875285245478153E-002,-8.563253879547119E-001,4.748418927192688E-001,6.455178558826447E-002,1.875285245478153E-002,-8.563253879547119E-001,4.748418927192688E-001,
1.208733333333334E+009,4.988772049546242E-002,9.978501126170158E-003,-8.497112989425659E-001,5.165204405784607E-001,4.988772049546242E-002,9.978501126170158E-003,-8.497112989425659E-001,5.165204405784607E-001,
1.217100000000000E+009,3.420509397983551E-002,1.132005918771029E-002,-8.457912206649780E-001,5.260910391807556E-001,3.420509397983551E-002,1.132005918771029E-002,-8.457912206649780E-001,5.260910391807556E-001,
1.225466666666667E+009,2.185994572937489E-002,2.223195508122444E-002,-8.137347102165222E-001,5.504984855651856E-001,2.185994572937489E-002,2.223195508122444E-002,-8.137347102165222E-001,5.504984855651856E-001,
1.233833333333334E+009,1.725362986326218E-002,3.896901756525040E-002,-8.089811801910400E-001,5.619169473648071E-001,1.725362986326218E-002,3.896901756525040E-002,-8.089811801910400E-001,5.619169473648071E-001,
1.242200000000000E+009,2.524442598223686E-002,5.359900370240212E-002,-7.840175628662109E-001,5.954016447067261E-001,2.524442598223686E-002,5.359900370240212E-002,-7.840175628662109E-001,5.954016447067261E-001,
1.250566666666667E+009,3.782514855265617E-002,6.401923298835754E-002,-7.626594305038452E-001,6.009538769721985E-001,3.782514855265617E-002,6.401923298835754E-002,-7.626594305038452E-001,6.009538769721985E-001,
1.258933333333334E+009,5.781813710927963E-002,6.441280990839005E-002,-7.576609849929810E-001,6.233258843421936E-001,5.781813710927963E-002,6.441280990839005E-002,-7.576609849929810E-001,6.233258843421936E-001,
1.267300000000000E+009,7.680330425500870E-002,5.403451994061470E-002,-7.389772534370422E-001,6.376448869705200E-001,7.680330425500870E-002,5.403451994061470E-002,-7.389772534370422E-001,6.376448869705200E-001,
1.275666666666667E+009,8.564894646406174E-002,3.615922853350639E-002,-7.264855504035950E-001,6.456305980682373E-001,8.564894646406174E-002,3.615922853350639E-002,-7.264855504035950E-001,6.456305980682373E-001,
1.284033333333334E+009,8.783673495054245E-002,1.512586418539286E-002,-7.105735540390015E-001,6.881648302078247E-001,8.783673495054245E-002,1.512586418539286E-002,-7.105735540390015E-001,6.881648302078247E-001,
1.292400000000000E+009,7.766326516866684E-002,-3.679455956444144E-003,-6.983072757720947E-001,6.916750073432922E-001,7.766326516866684E-002,-3.679455956444144E-003,-6.983072757720947E-001,6.916750073432922E-001,
1.300766666666667E+009,5.853188410401344E-002,-1.237149443477392E-002,-6.759682893753052E-001,7.154178619384766E-001,5.853188410401344E-002,-1.237149443477392E-002,-6.759682893753052E-001,7.154178619384766E-001,
1.309133333333334E+009,3.858726844191551E-002,-1.111661735922098E-002,-6.514416337013245E-001,7.298673391342163E-001,3.858726844191551E-002,-1.111661735922098E-002,-6.514416337013245E-001,7.298673391342163E-001,
1.317500000000000E+009,2.426365204155445E-002,7.198679377324879E-004,-6.390976905822754E-001,7.604349851608276E-001,2.426365204155445E-002,7.198679377324879E-004,-6.390976905822754E-001,7.604349851608276E-001,
1.325866666666667E+009,1.959032937884331E-002,1.773778349161148E-002,-6.198181509971619E-001,7.753629684448242E-001,1.959032937884331E-002,1.773778349161148E-002,-6.198181509971619E-001,7.753629684448242E-001,
1.334233333333334E+009,2.759383991360664E-002,3.572390973567963E-002,-6.015223860740662E-001,7.811229228973389E-001,2.759383991360664E-002,3.572390973567963E-002,-6.015223860740662E-001,7.811229228973389E-001,
1.342600000000000E+009,4.284335300326347E-002,4.515314102172852E-002,-5.842934250831604E-001,7.985970377922058E-001,4.284335300326347E-002,4.515314102172852E-002,-5.842934250831604E-001,7.985970377922058E-001,
1.350966666666667E+009,6.271181255578995E-002,4.290123283863068E-002,-5.581207871437073E-001,8.111566901206970E-001,6.271181255578995E-002,4.290123283863068E-002,-5.581207871437073E-001,8.111566901206970E-001,
1.359333333333334E+009,7.735727727413178E-002,2.981148660182953E-002,-5.451321601867676E-001,8.107507824897766E-001,7.735727727413178E-002,2.981148660182953E-002,-5.451321601867676E-001,8.107507824897766E-001,
1.367700000000000E+009,8.309339731931686E-002,1.029999274760485E-002,-5.113744735717773E-001,8.298538327217102E-001,8.309339731931686E-002,1.029999274760485E-002,-5.113744735717773E-001,8.298538327217102E-001,
1.376066666666667E+009,7.929928600788117E-002,-1.170074380934238E-002,-4.963129758834839E-001,8.395702242851257E-001,7.929928600788117E-002,-1.170074380934238E-002,-4.963129758834839E-001,8.395702242851257E-001,
1.384433333333334E+009,6.228647381067276E-002,-2.726773545145989E-002,-4.809968769550324E-001,8.699938654899597E-001,6.228647381067276E-002,-2.726773545145989E-002,-4.809968769550324E-001,8.699938654899597E-001,
1.392800000000000E+009,4.177077487111092E-002,-3.004638291895390E-002,-4.602598845958710E-001,8.780460953712463E-001,4.177077487111092E-002,-3.004638291895390E-002,-4.602598845958710E-001,8.780460953712463E-001,
1.401166666666667E+009,2.132898755371571E-002,-2.318955957889557E-002,-4.333145618438721E-001,8.852588534355164E-001,2.132898755371571E-002,-2.318955957889557E-002,-4.333145618438721E-001,8.852588534355164E-001,
1.409533333333334E+009,8.051935583353043E-003,-5.999672692269087E-003,-4.044843614101410E-001,8.998845219612122E-001,8.051935583353043E-003,-5.999672692269087E-003,-4.044843614101410E-001,8.998845219612122E-001,
1.417900000000000E+009,8.649012073874474E-003,1.719602569937706E-002,-3.853344619274139E-001,8.955315947532654E-001,8.649012073874474E-003,1.719602569937706E-002,-3.853344619274139E-001,8.955315947532654E-001,
1.426266666666667E+009,1.924017444252968E-002,3.444241732358933E-002,-3.489286005496979E-001,9.225548505783081E-001,1.924017444252968E-002,3.444241732358933E-002,-3.489286005496979E-001,9.225548505783081E-001,
1.434633333333334E+009,3.967668488621712E-002,4.343657568097115E-002,-3.394222557544708E-001,9.165325760841370E-001,3.967668488621712E-002,4.343657568097115E-002,-3.394222557544708E-001,9.165325760841370E-001,
1.443000000000000E+009,6.024373322725296E-002,4.151178523898125E-002,-3.152462244033814E-001,9.249429106712341E-001,6.024373322725296E-002,4.151178523898125E-002,-3.152462244033814E-001,9.249429106712341E-001,
1.451366666666667E+009,7.639903575181961E-002,2.667722851037979E-002,-2.894269227981567E-001,9.257473349571228E-001,7.639903575181961E-002,2.667722851037979E-002,-2.894269227981567E-001,9.257473349571228E-001,
1.459733333333334E+009,8.319353312253952E-002,6.935819052159786E-003,-2.641420364379883E-001,9.527676105499268E-001,8.319353312253952E-002,6.935819052159786E-003,-2.641420364379883E-001,9.527676105499268E-001,
