% Version 1.00
%
%freq[Hz],re:Trc1_S11,im:Trc1_S11,re:Trc2_S21,im:Trc2_S21,re:Trc3_S11,im:Trc3_S11,re:Trc4_S21,im:Trc4_S21,
6.900000000000000E+008,-3.934165835380554E-002,3.318499401211739E-002,-4.933351576328278E-001,-8.573288321495056E-001,-3.934165835380554E-002,3.318499401211739E-002,-4.933351576328278E-001,-8.573288321495056E-001,
6.983666666666666E+008,-3.128769621253014E-002,3.347096592187882E-002,-5.191348195075989E-001,-8.470836281776428E-001,-3.128769621253014E-002,3.347096592187882E-002,-5.191348195075989E-001,-8.470836281776428E-001,
7.067333333333334E+008,-2.504826523363590E-002,2.887339144945145E-002,-5.419560074806213E-001,-8.215860724449158E-001,-2.504826523363590E-002,2.887339144945145E-002,-5.419560074806213E-001,-8.215860724449158E-001,
7.151000000000000E+008,-2.438753470778465E-002,2.103994600474834E-002,-5.771611928939819E-001,-8.198361992835999E-001,-2.438753470778465E-002,2.103994600474834E-002,-5.771611928939819E-001,-8.198361992835999E-001,
7.234666666666666E+008,-2.586595900356770E-002,1.572966016829014E-002,-5.910236239433289E-001,-8.049790859222412E-001,-2.586595900356770E-002,1.572966016829014E-002,-5.910236239433289E-001,-8.049790859222412E-001,
7.318333333333334E+008,-3.300807625055313E-002,1.324356812983751E-002,-6.078243255615234E-001,-7.881157994270325E-001,-3.300807625055313E-002,1.324356812983751E-002,-6.078243255615234E-001,-7.881157994270325E-001,
7.402000000000000E+008,-3.915818780660629E-002,1.486903522163630E-002,-6.187049746513367E-001,-7.629247903823853E-001,-3.915818780660629E-002,1.486903522163630E-002,-6.187049746513367E-001,-7.629247903823853E-001,
7.485666666666666E+008,-4.466630518436432E-002,2.149289660155773E-002,-6.487993001937866E-001,-7.505159378051758E-001,-4.466630518436432E-002,2.149289660155773E-002,-6.487993001937866E-001,-7.505159378051758E-001,
7.569333333333334E+008,-4.885621741414070E-002,3.087664954364300E-002,-6.672827005386353E-001,-7.375057935714722E-001,-4.885621741414070E-002,3.087664954364300E-002,-6.672827005386353E-001,-7.375057935714722E-001,
7.653000000000000E+008,-4.406203329563141E-002,3.941783681511879E-002,-6.753046512603760E-001,-7.182350754737854E-001,-4.406203329563141E-002,3.941783681511879E-002,-6.753046512603760E-001,-7.182350754737854E-001,
7.736666666666666E+008,-3.824867680668831E-002,4.567063227295876E-002,-6.881141662597656E-001,-7.149261832237244E-001,-3.824867680668831E-002,4.567063227295876E-002,-6.881141662597656E-001,-7.149261832237244E-001,
7.820333333333334E+008,-3.001938201487064E-002,4.936378076672554E-002,-7.218778133392334E-001,-6.869658231735230E-001,-3.001938201487064E-002,4.936378076672554E-002,-7.218778133392334E-001,-6.869658231735230E-001,
7.904000000000000E+008,-2.027273364365101E-002,4.796952381730080E-002,-7.309642434120178E-001,-6.682102680206299E-001,-2.027273364365101E-002,4.796952381730080E-002,-7.309642434120178E-001,-6.682102680206299E-001,
7.987666666666666E+008,-1.598259061574936E-002,4.231595620512962E-002,-7.369676828384399E-001,-6.531999707221985E-001,-1.598259061574936E-002,4.231595620512962E-002,-7.369676828384399E-001,-6.531999707221985E-001,
8.071333333333334E+008,-1.359147392213345E-002,3.555407002568245E-002,-7.631726264953613E-001,-6.212500929832459E-001,-1.359147392213345E-002,3.555407002568245E-002,-7.631726264953613E-001,-6.212500929832459E-001,
8.155000000000000E+008,-1.634572632610798E-002,2.825564518570900E-002,-7.897379994392395E-001,-6.106262207031250E-001,-1.634572632610798E-002,2.825564518570900E-002,-7.897379994392395E-001,-6.106262207031250E-001,
8.238666666666666E+008,-2.263295464217663E-002,2.584765106439591E-002,-7.963638901710510E-001,-5.878638029098511E-001,-2.263295464217663E-002,2.584765106439591E-002,-7.963638901710510E-001,-5.878638029098511E-001,
8.322333333333334E+008,-2.812219597399235E-002,2.699013985693455E-002,-8.062123656272888E-001,-5.698158740997315E-001,-2.812219597399235E-002,2.699013985693455E-002,-8.062123656272888E-001,-5.698158740997315E-001,
8.406000000000000E+008,-3.278011828660965E-002,2.992646768689156E-002,-8.182588815689087E-001,-5.478294491767883E-001,-3.278011828660965E-002,2.992646768689156E-002,-8.182588815689087E-001,-5.478294491767883E-001,
8.489666666666668E+008,-3.479723632335663E-002,4.064750671386719E-002,-8.306264877319336E-001,-5.186401009559631E-001,-3.479723632335663E-002,4.064750671386719E-002,-8.306264877319336E-001,-5.186401009559631E-001,
8.573333333333334E+008,-3.341457992792130E-002,4.823619872331619E-002,-8.333086967468262E-001,-4.883148968219757E-001,-3.341457992792130E-002,4.823619872331619E-002,-8.333086967468262E-001,-4.883148968219757E-001,
8.657000000000000E+008,-2.885766513645649E-002,5.588644742965698E-002,-8.612767457962036E-001,-4.928245246410370E-001,-2.885766513645649E-002,5.588644742965698E-002,-8.612767457962036E-001,-4.928245246410370E-001,
8.740666666666668E+008,-2.049177139997482E-002,6.076236069202423E-002,-8.674795031547546E-001,-4.682508409023285E-001,-2.049177139997482E-002,6.076236069202423E-002,-8.674795031547546E-001,-4.682508409023285E-001,
8.824333333333334E+008,-1.275452692061663E-002,6.200001761317253E-002,-8.861324191093445E-001,-4.439840316772461E-001,-1.275452692061663E-002,6.200001761317253E-002,-8.861324191093445E-001,-4.439840316772461E-001,
8.908000000000000E+008,-5.005686078220606E-003,5.824577435851097E-002,-9.000656604766846E-001,-4.266673624515533E-001,-5.005686078220606E-003,5.824577435851097E-002,-9.000656604766846E-001,-4.266673624515533E-001,
8.991666666666668E+008,3.035335976164788E-004,5.200022459030151E-002,-9.003561139106751E-001,-3.991664350032806E-001,3.035335976164788E-004,5.200022459030151E-002,-9.003561139106751E-001,-3.991664350032806E-001,
9.075333333333334E+008,7.157208747230470E-004,4.385303333401680E-002,-9.143371582031250E-001,-3.742526173591614E-001,7.157208747230470E-004,4.385303333401680E-002,-9.143371582031250E-001,-3.742526173591614E-001,
9.159000000000000E+008,-1.666673342697322E-003,3.776665776968002E-002,-9.359887838363648E-001,-3.502011299133301E-001,-1.666673342697322E-003,3.776665776968002E-002,-9.359887838363648E-001,-3.502011299133301E-001,
9.242666666666668E+008,-8.265037089586258E-003,3.738731145858765E-002,-9.278264045715332E-001,-3.280908763408661E-001,-8.265037089586258E-003,3.738731145858765E-002,-9.278264045715332E-001,-3.280908763408661E-001,
9.326333333333334E+008,-1.315555348992348E-002,3.912758454680443E-002,-9.436693787574768E-001,-3.136275708675385E-001,-1.315555348992348E-002,3.912758454680443E-002,-9.436693787574768E-001,-3.136275708675385E-001,
9.410000000000000E+008,-1.754051819443703E-002,4.313744604587555E-002,-9.545291066169739E-001,-2.787395119667053E-001,-1.754051819443703E-002,4.313744604587555E-002,-9.545291066169739E-001,-2.787395119667053E-001,
9.493666666666668E+008,-1.965134218335152E-002,5.225208774209023E-002,-9.596899151802063E-001,-2.483182400465012E-001,-1.965134218335152E-002,5.225208774209023E-002,-9.596899151802063E-001,-2.483182400465012E-001,
9.577333333333334E+008,-1.672854088246822E-002,6.196358427405357E-002,-9.660211205482483E-001,-2.348008751869202E-001,-1.672854088246822E-002,6.196358427405357E-002,-9.660211205482483E-001,-2.348008751869202E-001,
9.661000000000000E+008,-8.795186877250671E-003,6.879638880491257E-002,-9.672682881355286E-001,-1.923460215330124E-001,-8.795186877250671E-003,6.879638880491257E-002,-9.672682881355286E-001,-1.923460215330124E-001,
9.744666666666668E+008,1.288587343879044E-003,6.940722465515137E-002,-9.659726619720459E-001,-1.824897080659866E-001,1.288587343879044E-003,6.940722465515137E-002,-9.659726619720459E-001,-1.824897080659866E-001,
9.828333333333334E+008,9.992587380111218E-003,7.044678181409836E-002,-9.818981885910034E-001,-1.631711274385452E-001,9.992587380111218E-003,7.044678181409836E-002,-9.818981885910034E-001,-1.631711274385452E-001,
9.912000000000000E+008,2.018885128200054E-002,6.388029456138611E-002,-9.793443679809570E-001,-1.406767517328262E-001,2.018885128200054E-002,6.388029456138611E-002,-9.793443679809570E-001,-1.406767517328262E-001,
9.995666666666668E+008,2.385197766125202E-002,5.565878003835678E-002,-9.920608997344971E-001,-1.041763424873352E-001,2.385197766125202E-002,5.565878003835678E-002,-9.920608997344971E-001,-1.041763424873352E-001,
1.007933333333333E+009,2.737958915531635E-002,4.564049467444420E-002,-1.005849719047546E+000,-8.722209930419922E-002,2.737958915531635E-002,4.564049467444420E-002,-1.005849719047546E+000,-8.722209930419922E-002,
1.016300000000000E+009,2.134621702134609E-002,3.905201330780983E-002,-9.927949905395508E-001,-6.104156747460365E-002,2.134621702134609E-002,3.905201330780983E-002,-9.927949905395508E-001,-6.104156747460365E-002,
1.024666666666667E+009,1.389312744140625E-002,3.464349731802940E-002,-9.890052080154419E-001,-3.524122387170792E-002,1.389312744140625E-002,3.464349731802940E-002,-9.890052080154419E-001,-3.524122387170792E-002,
1.033033333333333E+009,8.767738938331604E-003,3.886807337403297E-002,-9.961636662483215E-001,-9.163699112832546E-003,8.767738938331604E-003,3.886807337403297E-002,-9.961636662483215E-001,-9.163699112832546E-003,
1.041400000000000E+009,1.904419856145978E-003,4.370539635419846E-002,-9.963196516036987E-001,1.183049287647009E-002,1.904419856145978E-003,4.370539635419846E-002,-9.963196516036987E-001,1.183049287647009E-002,
1.049766666666667E+009,4.393029492348433E-003,5.341797322034836E-002,-9.828484654426575E-001,4.838448017835617E-002,4.393029492348433E-003,5.341797322034836E-002,-9.828484654426575E-001,4.838448017835617E-002,
1.058133333333333E+009,7.984690368175507E-003,6.269923597574234E-002,-9.849456548690796E-001,7.028209418058395E-002,7.984690368175507E-003,6.269923597574234E-002,-9.849456548690796E-001,7.028209418058395E-002,
1.066500000000000E+009,1.845652423799038E-002,6.733029335737228E-002,-1.000237822532654E+000,1.039364561438561E-001,1.845652423799038E-002,6.733029335737228E-002,-1.000237822532654E+000,1.039364561438561E-001,
1.074866666666667E+009,3.130811825394630E-002,6.635838001966476E-002,-9.949551820755005E-001,1.249299496412277E-001,3.130811825394630E-002,6.635838001966476E-002,-9.949551820755005E-001,1.249299496412277E-001,
1.083233333333334E+009,3.948843851685524E-002,5.847757682204247E-002,-9.783934354782105E-001,1.462259143590927E-001,3.948843851685524E-002,5.847757682204247E-002,-9.783934354782105E-001,1.462259143590927E-001,
1.091600000000000E+009,4.560916870832443E-002,4.770278558135033E-002,-9.607647061347961E-001,1.659964025020599E-001,4.560916870832443E-002,4.770278558135033E-002,-9.607647061347961E-001,1.659964025020599E-001,
1.099966666666667E+009,4.471997171640396E-002,3.376689925789833E-002,-9.563338160514832E-001,2.043978869915009E-001,4.471997171640396E-002,3.376689925789833E-002,-9.563338160514832E-001,2.043978869915009E-001,
1.108333333333334E+009,3.646749258041382E-002,2.499714493751526E-002,-9.560021162033081E-001,2.126516848802567E-001,3.646749258041382E-002,2.499714493751526E-002,-9.560021162033081E-001,2.126516848802567E-001,
1.116700000000000E+009,2.593471668660641E-002,2.091556042432785E-002,-9.496052861213684E-001,2.456871718168259E-001,2.593471668660641E-002,2.091556042432785E-002,-9.496052861213684E-001,2.456871718168259E-001,
1.125066666666667E+009,1.454706490039825E-002,2.483981475234032E-002,-9.506463408470154E-001,2.619197070598602E-001,1.454706490039825E-002,2.483981475234032E-002,-9.506463408470154E-001,2.619197070598602E-001,
1.133433333333334E+009,6.344863213598728E-003,3.427815809845924E-002,-9.488267302513123E-001,3.065528869628906E-001,6.344863213598728E-003,3.427815809845924E-002,-9.488267302513123E-001,3.065528869628906E-001,
1.141800000000000E+009,4.507856443524361E-003,4.780231788754463E-002,-9.267788529396057E-001,3.214248418807983E-001,4.507856443524361E-003,4.780231788754463E-002,-9.267788529396057E-001,3.214248418807983E-001,
1.150166666666667E+009,1.305957976728678E-002,6.268696486949921E-002,-9.176890850067139E-001,3.223471343517304E-001,1.305957976728678E-002,6.268696486949921E-002,-9.176890850067139E-001,3.223471343517304E-001,
1.158533333333334E+009,2.832122705876827E-002,7.038568705320358E-002,-9.109240770339966E-001,3.632854819297791E-001,2.832122705876827E-002,7.038568705320358E-002,-9.109240770339966E-001,3.632854819297791E-001,
1.166900000000000E+009,4.700834676623344E-002,7.118816673755646E-002,-8.948601484298706E-001,3.838970959186554E-001,4.700834676623344E-002,7.118816673755646E-002,-8.948601484298706E-001,3.838970959186554E-001,
1.175266666666667E+009,6.261877715587616E-002,6.097794696688652E-002,-8.894469141960144E-001,4.137257635593414E-001,6.261877715587616E-002,6.097794696688652E-002,-8.894469141960144E-001,4.137257635593414E-001,
1.183633333333334E+009,7.429084926843643E-002,4.652300104498863E-002,-8.877388834953308E-001,4.254253506660461E-001,7.429084926843643E-002,4.652300104498863E-002,-8.877388834953308E-001,4.254253506660461E-001,
1.192000000000000E+009,7.413980364799500E-002,2.765308693051338E-002,-8.753173947334290E-001,4.481912851333618E-001,7.413980364799500E-002,2.765308693051338E-002,-8.753173947334290E-001,4.481912851333618E-001,
1.200366666666667E+009,6.463848054409027E-002,1.056817546486855E-002,-8.628723621368408E-001,4.697787761688232E-001,6.463848054409027E-002,1.056817546486855E-002,-8.628723621368408E-001,4.697787761688232E-001,
1.208733333333334E+009,4.940757155418396E-002,9.607520769350231E-004,-8.568670749664307E-001,5.111607909202576E-001,4.940757155418396E-002,9.607520769350231E-004,-8.568670749664307E-001,5.111607909202576E-001,
1.217100000000000E+009,3.308812156319618E-002,1.477953628636897E-003,-8.524032831192017E-001,5.208498239517212E-001,3.308812156319618E-002,1.477953628636897E-003,-8.524032831192017E-001,5.208498239517212E-001,
1.225466666666667E+009,2.017204836010933E-002,1.161852199584246E-002,-8.207664489746094E-001,5.462135672569275E-001,2.017204836010933E-002,1.161852199584246E-002,-8.207664489746094E-001,5.462135672569275E-001,
1.233833333333334E+009,1.513676438480616E-002,2.814935706555843E-002,-8.162792921066284E-001,5.575243234634399E-001,1.513676438480616E-002,2.814935706555843E-002,-8.162792921066284E-001,5.575243234634399E-001,
1.242200000000000E+009,2.283410169184208E-002,4.296698048710823E-002,-7.917944788932800E-001,5.916664600372315E-001,2.283410169184208E-002,4.296698048710823E-002,-7.917944788932800E-001,5.916664600372315E-001,
1.250566666666667E+009,3.554792329668999E-002,5.396209284663200E-002,-7.703342437744141E-001,5.973070263862610E-001,3.554792329668999E-002,5.396209284663200E-002,-7.703342437744141E-001,5.973070263862610E-001,
1.258933333333334E+009,5.601682886481285E-002,5.519422888755798E-002,-7.649849057197571E-001,6.199531555175781E-001,5.601682886481285E-002,5.519422888755798E-002,-7.649849057197571E-001,6.199531555175781E-001,
1.267300000000000E+009,7.534513622522354E-002,4.537531733512878E-002,-7.462834119796753E-001,6.344602108001709E-001,7.534513622522354E-002,4.537531733512878E-002,-7.462834119796753E-001,6.344602108001709E-001,
1.275666666666667E+009,8.464610576629639E-002,2.782109193503857E-002,-7.335344552993774E-001,6.428641676902771E-001,8.464610576629639E-002,2.782109193503857E-002,-7.335344552993774E-001,6.428641676902771E-001,
1.284033333333334E+009,8.687070757150650E-002,6.892909295856953E-003,-7.180826067924500E-001,6.850910186767578E-001,8.687070757150650E-002,6.892909295856953E-003,-7.180826067924500E-001,6.850910186767578E-001,
1.292400000000000E+009,7.631602138280869E-002,-1.213921606540680E-002,-7.058095932006836E-001,6.884368658065796E-001,7.631602138280869E-002,-1.213921606540680E-002,-7.058095932006836E-001,6.884368658065796E-001,
1.300766666666667E+009,5.642820149660111E-002,-2.133980207145214E-002,-6.835896372795105E-001,7.124702930450440E-001,5.642820149660111E-002,-2.133980207145214E-002,-6.835896372795105E-001,7.124702930450440E-001,
1.309133333333334E+009,3.548202663660049E-002,-2.062916196882725E-002,-6.592443585395813E-001,7.266837954521179E-001,3.548202663660049E-002,-2.062916196882725E-002,-6.592443585395813E-001,7.266837954521179E-001,
1.317500000000000E+009,2.032700181007385E-002,-9.341295808553696E-003,-6.476899981498718E-001,7.574685215950012E-001,2.032700181007385E-002,-9.341295808553696E-003,-6.476899981498718E-001,7.574685215950012E-001,
1.325866666666667E+009,1.483764033764601E-002,7.342756260186434E-003,-6.285324096679688E-001,7.725793719291687E-001,1.483764033764601E-002,7.342756260186434E-003,-6.285324096679688E-001,7.725793719291687E-001,
1.334233333333334E+009,2.246553823351860E-002,2.537515014410019E-002,-6.104859113693237E-001,7.787828445434570E-001,2.246553823351860E-002,2.537515014410019E-002,-6.104859113693237E-001,7.787828445434570E-001,
1.342600000000000E+009,3.781295940279961E-002,3.512552753090859E-002,-5.932831764221191E-001,7.965121269226074E-001,3.781295940279961E-002,3.512552753090859E-002,-5.932831764221191E-001,7.965121269226074E-001,
1.350966666666667E+009,5.815333500504494E-002,3.332909196615219E-002,-5.675119757652283E-001,8.092700839042664E-001,5.815333500504494E-002,3.332909196615219E-002,-5.675119757652283E-001,8.092700839042664E-001,
1.359333333333334E+009,7.363152503967285E-002,2.061524055898190E-002,-5.545294284820557E-001,8.090931773185730E-001,7.363152503967285E-002,2.061524055898190E-002,-5.545294284820557E-001,8.090931773185730E-001,
1.367700000000000E+009,8.013154566287994E-002,1.390380319207907E-003,-5.207895636558533E-001,8.288440704345703E-001,8.013154566287994E-002,1.390380319207907E-003,-5.207895636558533E-001,8.288440704345703E-001,
1.376066666666667E+009,7.660926133394241E-002,-2.049219049513340E-002,-5.054423213005066E-001,8.378928303718567E-001,7.660926133394241E-002,-2.049219049513340E-002,-5.054423213005066E-001,8.378928303718567E-001,
1.384433333333334E+009,5.951978638768196E-002,-3.625743463635445E-002,-4.907108843326569E-001,8.686011433601379E-001,5.951978638768196E-002,-3.625743463635445E-002,-4.907108843326569E-001,8.686011433601379E-001,
1.392800000000000E+009,3.819664195179939E-002,-3.933477401733398E-002,-4.694641828536987E-001,8.771559596061707E-001,3.819664195179939E-002,-3.933477401733398E-002,-4.694641828536987E-001,8.771559596061707E-001,
1.401166666666667E+009,1.653965748846531E-002,-3.271276131272316E-002,-4.430362582206726E-001,8.844576478004456E-001,1.653965748846531E-002,-3.271276131272316E-002,-4.430362582206726E-001,8.844576478004456E-001,
1.409533333333334E+009,1.840529614128172E-003,-1.535206940025091E-002,-4.146006405353546E-001,8.993085026741028E-001,1.840529614128172E-003,-1.535206940025091E-002,-4.146006405353546E-001,8.993085026741028E-001,
1.417900000000000E+009,1.190238283015788E-003,7.789983414113522E-003,-3.952407538890839E-001,8.953655958175659E-001,1.190238283015788E-003,7.789983414113522E-003,-3.952407538890839E-001,8.953655958175659E-001,
1.426266666666667E+009,1.097419485449791E-002,2.515444904565811E-002,-3.591887056827545E-001,9.228347539901733E-001,1.097419485449791E-002,2.515444904565811E-002,-3.591887056827545E-001,9.228347539901733E-001,
1.434633333333334E+009,3.114943206310272E-002,3.446118533611298E-002,-3.498933613300324E-001,9.178825616836548E-001,3.114943206310272E-002,3.446118533611298E-002,-3.498933613300324E-001,9.178825616836548E-001,
1.443000000000000E+009,5.188635364174843E-002,3.265782073140144E-002,-3.254764676094055E-001,9.265751242637634E-001,5.188635364174843E-002,3.265782073140144E-002,-3.254764676094055E-001,9.265751242637634E-001,
1.451366666666667E+009,6.878287345170975E-002,1.797064207494259E-002,-2.994164228439331E-001,9.276092648506165E-001,6.878287345170975E-002,1.797064207494259E-002,-2.994164228439331E-001,9.276092648506165E-001,
1.459733333333334E+009,7.630801200866699E-002,-1.735647092573345E-003,-2.736567854881287E-001,9.550735354423523E-001,7.630801200866699E-002,-1.735647092573345E-003,-2.736567854881287E-001,9.550735354423523E-001,
