% Version 1.00
%
%freq[Hz],re:Trc1_S11,im:Trc1_S11,re:Trc2_S21,im:Trc2_S21,re:Trc3_S11,im:Trc3_S11,re:Trc4_S21,im:Trc4_S21,
6.900000000000000E+008,-5.029697343707085E-002,3.817095607519150E-002,-5.032873749732971E-001,-8.514388203620911E-001,-5.029697343707085E-002,3.817095607519150E-002,-5.032873749732971E-001,-8.514388203620911E-001,
6.983666666666666E+008,-4.219560697674751E-002,3.866137936711311E-002,-5.286735892295837E-001,-8.407921195030212E-001,-4.219560697674751E-002,3.866137936711311E-002,-5.286735892295837E-001,-8.407921195030212E-001,
7.067333333333334E+008,-3.615972399711609E-002,3.421985730528832E-002,-5.515331625938416E-001,-8.151369690895081E-001,-3.615972399711609E-002,3.421985730528832E-002,-5.515331625938416E-001,-8.151369690895081E-001,
7.151000000000000E+008,-3.557465597987175E-002,2.665801905095577E-002,-5.867596268653870E-001,-8.128072023391724E-001,-3.557465597987175E-002,2.665801905095577E-002,-5.867596268653870E-001,-8.128072023391724E-001,
7.234666666666666E+008,-3.741247951984406E-002,2.147640474140644E-002,-6.000859141349793E-001,-7.976570129394531E-001,-3.741247951984406E-002,2.147640474140644E-002,-6.000859141349793E-001,-7.976570129394531E-001,
7.318333333333334E+008,-4.468438029289246E-002,1.915668509900570E-002,-6.173271536827087E-001,-7.801511287689209E-001,-4.468438029289246E-002,1.915668509900570E-002,-6.173271536827087E-001,-7.801511287689209E-001,
7.402000000000000E+008,-5.090818181633949E-002,2.113321609795094E-002,-6.279642581939697E-001,-7.550504207611084E-001,-5.090818181633949E-002,2.113321609795094E-002,-6.279642581939697E-001,-7.550504207611084E-001,
7.485666666666666E+008,-5.637079104781151E-002,2.813561260700226E-002,-6.578557491302490E-001,-7.416280508041382E-001,-5.637079104781151E-002,2.813561260700226E-002,-6.578557491302490E-001,-7.416280508041382E-001,
7.569333333333334E+008,-6.048008054494858E-002,3.790904581546783E-002,-6.765346527099609E-001,-7.283879518508911E-001,-6.048008054494858E-002,3.790904581546783E-002,-6.765346527099609E-001,-7.283879518508911E-001,
7.653000000000000E+008,-5.525913462042809E-002,4.685281217098236E-002,-6.836882829666138E-001,-7.092770934104919E-001,-5.525913462042809E-002,4.685281217098236E-002,-6.836882829666138E-001,-7.092770934104919E-001,
7.736666666666666E+008,-4.914510995149612E-002,5.354795232415199E-002,-6.968703866004944E-001,-7.055981159210205E-001,-4.914510995149612E-002,5.354795232415199E-002,-6.968703866004944E-001,-7.055981159210205E-001,
7.820333333333334E+008,-4.056654870510101E-002,5.763222277164459E-002,-7.302464246749878E-001,-6.771911978721619E-001,-4.056654870510101E-002,5.763222277164459E-002,-7.302464246749878E-001,-6.771911978721619E-001,
7.904000000000000E+008,-3.068137168884277E-002,5.652482807636261E-002,-7.394114732742310E-001,-6.586603522300720E-001,-3.068137168884277E-002,5.652482807636261E-002,-7.394114732742310E-001,-6.586603522300720E-001,
7.987666666666666E+008,-2.630384266376495E-002,5.128629505634308E-002,-7.447476983070374E-001,-6.426343321800232E-001,-2.630384266376495E-002,5.128629505634308E-002,-7.447476983070374E-001,-6.426343321800232E-001,
8.071333333333334E+008,-2.426358498632908E-002,4.470594972372055E-002,-7.712934613227844E-001,-6.107857823371887E-001,-2.426358498632908E-002,4.470594972372055E-002,-7.712934613227844E-001,-6.107857823371887E-001,
8.155000000000000E+008,-2.699044160544872E-002,3.755959123373032E-002,-7.978567481040955E-001,-5.995624065399170E-001,-2.699044160544872E-002,3.755959123373032E-002,-7.978567481040955E-001,-5.995624065399170E-001,
8.238666666666666E+008,-3.358601406216621E-002,3.549975529313088E-002,-8.040359020233154E-001,-5.759528875350952E-001,-3.358601406216621E-002,3.549975529313088E-002,-8.040359020233154E-001,-5.759528875350952E-001,
8.322333333333334E+008,-3.912501782178879E-002,3.693932294845581E-002,-8.135066032409668E-001,-5.576885342597961E-001,-3.912501782178879E-002,3.693932294845581E-002,-8.135066032409668E-001,-5.576885342597961E-001,
8.406000000000000E+008,-4.384934902191162E-002,4.026490077376366E-002,-8.256582021713257E-001,-5.352509021759033E-001,-4.384934902191162E-002,4.026490077376366E-002,-8.256582021713257E-001,-5.352509021759033E-001,
8.489666666666668E+008,-4.555522650480270E-002,5.152951553463936E-002,-8.373124599456787E-001,-5.059167146682739E-001,-4.555522650480270E-002,5.152951553463936E-002,-8.373124599456787E-001,-5.059167146682739E-001,
8.573333333333334E+008,-4.365766793489456E-002,5.945899337530136E-002,-8.394463658332825E-001,-4.755200147628784E-001,-4.365766793489456E-002,5.945899337530136E-002,-8.394463658332825E-001,-4.755200147628784E-001,
8.657000000000000E+008,-3.852434828877449E-002,6.717675924301148E-002,-8.668961524963379E-001,-4.796506166458130E-001,-3.852434828877449E-002,6.717675924301148E-002,-8.668961524963379E-001,-4.796506166458130E-001,
8.740666666666668E+008,-2.964210323989391E-002,7.230436056852341E-002,-8.731734752655029E-001,-4.549694657325745E-001,-2.964210323989391E-002,7.230436056852341E-002,-8.731734752655029E-001,-4.549694657325745E-001,
8.824333333333334E+008,-2.166992425918579E-002,7.377951592206955E-002,-8.914582729339600E-001,-4.305457472801209E-001,-2.166992425918579E-002,7.377951592206955E-002,-8.914582729339600E-001,-4.305457472801209E-001,
8.908000000000000E+008,-1.369225420057774E-002,7.027138024568558E-002,-9.051222205162048E-001,-4.127707481384277E-001,-1.369225420057774E-002,7.027138024568558E-002,-9.051222205162048E-001,-4.127707481384277E-001,
8.991666666666668E+008,-8.289970457553864E-003,6.420391052961350E-002,-9.051789045333862E-001,-3.856645524501801E-001,-8.289970457553864E-003,6.420391052961350E-002,-9.051789045333862E-001,-3.856645524501801E-001,
9.075333333333334E+008,-7.943947799503803E-003,5.670246854424477E-002,-9.195104837417603E-001,-3.600647151470184E-001,-7.943947799503803E-003,5.670246854424477E-002,-9.195104837417603E-001,-3.600647151470184E-001,
9.159000000000000E+008,-1.076394040137529E-002,5.074997246265411E-002,-9.405885934829712E-001,-3.351452350616455E-001,-1.076394040137529E-002,5.074997246265411E-002,-9.405885934829712E-001,-3.351452350616455E-001,
9.242666666666668E+008,-1.741290464997292E-002,5.093081668019295E-002,-9.318808317184448E-001,-3.132582008838654E-001,-1.741290464997292E-002,5.093081668019295E-002,-9.318808317184448E-001,-3.132582008838654E-001,
9.326333333333334E+008,-2.236532606184483E-002,5.318298935890198E-002,-9.477981925010681E-001,-2.989910542964935E-001,-2.236532606184483E-002,5.318298935890198E-002,-9.477981925010681E-001,-2.989910542964935E-001,
9.410000000000000E+008,-2.638854458928108E-002,5.764771625399590E-002,-9.579907059669495E-001,-2.631842792034149E-001,-2.638854458928108E-002,5.764771625399590E-002,-9.579907059669495E-001,-2.631842792034149E-001,
9.493666666666668E+008,-2.782649360597134E-002,6.705254316329956E-002,-9.625135064125061E-001,-2.325392663478851E-001,-2.782649360597134E-002,6.705254316329956E-002,-9.625135064125061E-001,-2.325392663478851E-001,
9.577333333333334E+008,-2.432533912360668E-002,7.705237716436386E-002,-9.683761596679688E-001,-2.189032435417175E-001,-2.432533912360668E-002,7.705237716436386E-002,-9.683761596679688E-001,-2.189032435417175E-001,
9.661000000000000E+008,-1.571513153612614E-002,8.381802588701248E-002,-9.694823026657105E-001,-1.768809407949448E-001,-1.571513153612614E-002,8.381802588701248E-002,-9.694823026657105E-001,-1.768809407949448E-001,
9.744666666666668E+008,-5.004751496016979E-003,8.409493416547775E-002,-9.672083258628845E-001,-1.668719053268433E-001,-5.004751496016979E-003,8.409493416547775E-002,-9.672083258628845E-001,-1.668719053268433E-001,
9.828333333333334E+008,3.978661261498928E-003,8.518752455711365E-002,-9.827381372451782E-001,-1.471261084079742E-001,3.978661261498928E-003,8.518752455711365E-002,-9.827381372451782E-001,-1.471261084079742E-001,
9.912000000000000E+008,1.428490877151489E-002,7.869223505258560E-002,-9.802343249320984E-001,-1.248371750116348E-001,1.428490877151489E-002,7.869223505258560E-002,-9.802343249320984E-001,-1.248371750116348E-001,
9.995666666666668E+008,1.783775910735130E-002,7.079675793647766E-002,-9.927433133125305E-001,-8.766845613718033E-002,1.783775910735130E-002,7.079675793647766E-002,-9.927433133125305E-001,-8.766845613718033E-002,
1.007933333333333E+009,2.138980291783810E-002,6.125527992844582E-002,-1.006587266921997E+000,-7.024703919887543E-002,2.138980291783810E-002,6.125527992844582E-002,-1.006587266921997E+000,-7.024703919887543E-002,
1.016300000000000E+009,1.530131511390209E-002,5.523268133401871E-002,-9.926519989967346E-001,-4.419215023517609E-002,1.530131511390209E-002,5.523268133401871E-002,-9.926519989967346E-001,-4.419215023517609E-002,
1.024666666666667E+009,7.699826266616583E-003,5.141212046146393E-002,-9.882246255874634E-001,-1.775525882840157E-002,7.699826266616583E-003,5.141212046146393E-002,-9.882246255874634E-001,-1.775525882840157E-002,
1.033033333333333E+009,2.818481065332890E-003,5.631185695528984E-002,-9.946806430816650E-001,8.700885809957981E-003,2.818481065332890E-003,5.631185695528984E-002,-9.946806430816650E-001,8.700885809957981E-003,
1.041400000000000E+009,-3.640682203695178E-003,6.146245822310448E-002,-9.943284392356873E-001,2.947684191167355E-002,-3.640682203695178E-003,6.146245822310448E-002,-9.943284392356873E-001,2.947684191167355E-002,
1.049766666666667E+009,-2.908260794356465E-004,7.114572077989578E-002,-9.798828959465027E-001,6.565003097057343E-002,-2.908260794356465E-004,7.114572077989578E-002,-9.798828959465027E-001,6.565003097057343E-002,
1.058133333333333E+009,3.929346334189177E-003,8.049447089433670E-002,-9.814077019691467E-001,8.754869550466538E-002,3.929346334189177E-003,8.049447089433670E-002,-9.814077019691467E-001,8.754869550466538E-002,
1.066500000000000E+009,1.512855198234320E-002,8.482719957828522E-002,-9.963055849075317E-001,1.220633164048195E-001,1.512855198234320E-002,8.482719957828522E-002,-9.963055849075317E-001,1.220633164048195E-001,
1.074866666666667E+009,2.851906232535839E-002,8.360575884580612E-002,-9.898932576179504E-001,1.424948871135712E-001,2.851906232535839E-002,8.360575884580612E-002,-9.898932576179504E-001,1.424948871135712E-001,
1.083233333333334E+009,3.689019381999970E-002,7.557532936334610E-002,-9.733327627182007E-001,1.629707962274551E-001,3.689019381999970E-002,7.557532936334610E-002,-9.733327627182007E-001,1.629707962274551E-001,
1.091600000000000E+009,4.311964660882950E-002,6.496492773294449E-002,-9.556906819343567E-001,1.825146973133087E-001,4.311964660882950E-002,6.496492773294449E-002,-9.556906819343567E-001,1.825146973133087E-001,
1.099966666666667E+009,4.199385270476341E-002,5.144458264112473E-002,-9.509697556495667E-001,2.209860086441040E-001,4.199385270476341E-002,5.144458264112473E-002,-9.509697556495667E-001,2.209860086441040E-001,
1.108333333333334E+009,3.375841304659843E-002,4.347254708409309E-002,-9.510383009910584E-001,2.290242016315460E-001,3.375841304659843E-002,4.347254708409309E-002,-9.510383009910584E-001,2.290242016315460E-001,
1.116700000000000E+009,2.338824979960918E-002,4.026621952652931E-002,-9.434675574302673E-001,2.632024884223938E-001,2.338824979960918E-002,4.026621952652931E-002,-9.434675574302673E-001,2.632024884223938E-001,
1.125066666666667E+009,1.251312717795372E-002,4.506031796336174E-002,-9.440159797668457E-001,2.796616852283478E-001,1.251312717795372E-002,4.506031796336174E-002,-9.440159797668457E-001,2.796616852283478E-001,
1.133433333333334E+009,5.112179089337587E-003,5.500890687108040E-002,-9.410866498947144E-001,3.246580958366394E-001,5.112179089337587E-003,5.500890687108040E-002,-9.410866498947144E-001,3.246580958366394E-001,
1.141800000000000E+009,4.273337777704001E-003,6.868863850831986E-002,-9.178434610366821E-001,3.390161693096161E-001,4.273337777704001E-003,6.868863850831986E-002,-9.178434610366821E-001,3.390161693096161E-001,
1.150166666666667E+009,1.361755188554525E-002,8.304860442876816E-002,-9.090567231178284E-001,3.395143747329712E-001,1.361755188554525E-002,8.304860442876816E-002,-9.090567231178284E-001,3.395143747329712E-001,
1.158533333333334E+009,2.968788333237171E-002,9.035051614046097E-002,-9.013409018516541E-001,3.797595798969269E-001,2.968788333237171E-002,9.035051614046097E-002,-9.013409018516541E-001,3.797595798969269E-001,
1.166900000000000E+009,4.895332828164101E-002,9.039442241191864E-002,-8.850646615028381E-001,4.000461399555206E-001,4.895332828164101E-002,9.039442241191864E-002,-8.850646615028381E-001,4.000461399555206E-001,
1.175266666666667E+009,6.459666043519974E-002,7.961194962263107E-002,-8.792964816093445E-001,4.291986227035523E-001,6.459666043519974E-002,7.961194962263107E-002,-8.792964816093445E-001,4.291986227035523E-001,
1.183633333333334E+009,7.626469433307648E-002,6.498983502388001E-002,-8.777999877929688E-001,4.412750005722046E-001,7.626469433307648E-002,6.498983502388001E-002,-8.777999877929688E-001,4.412750005722046E-001,
1.192000000000000E+009,7.590623944997788E-002,4.629287496209145E-002,-8.650219440460205E-001,4.639224112033844E-001,7.590623944997788E-002,4.629287496209145E-002,-8.650219440460205E-001,4.639224112033844E-001,
1.200366666666667E+009,6.612695008516312E-002,2.989374659955502E-002,-8.520443439483643E-001,4.853701591491699E-001,6.612695008516312E-002,2.989374659955502E-002,-8.520443439483643E-001,4.853701591491699E-001,
1.208733333333334E+009,5.120243877172470E-002,2.129068411886692E-002,-8.447082638740540E-001,5.276270508766174E-001,5.120243877172470E-002,2.129068411886692E-002,-8.447082638740540E-001,5.276270508766174E-001,
1.217100000000000E+009,3.552882000803947E-002,2.265691757202148E-002,-8.401724100112915E-001,5.372663736343384E-001,3.552882000803947E-002,2.265691757202148E-002,-8.401724100112915E-001,5.372663736343384E-001,
1.225466666666667E+009,2.349518239498138E-002,3.381551057100296E-002,-8.076831698417664E-001,5.618572235107422E-001,2.349518239498138E-002,3.381551057100296E-002,-8.076831698417664E-001,5.618572235107422E-001,
1.233833333333334E+009,1.957574300467968E-002,5.053871870040894E-002,-8.025444149971008E-001,5.732954740524292E-001,1.957574300467968E-002,5.053871870040894E-002,-8.025444149971008E-001,5.732954740524292E-001,
1.242200000000000E+009,2.852934226393700E-002,6.505516171455383E-002,-7.768726348876953E-001,6.064733266830444E-001,2.852934226393700E-002,6.505516171455383E-002,-7.768726348876953E-001,6.064733266830444E-001,
1.250566666666667E+009,4.212234541773796E-002,7.531026750802994E-002,-7.552704811096191E-001,6.116619110107422E-001,4.212234541773796E-002,7.531026750802994E-002,-7.552704811096191E-001,6.116619110107422E-001,
1.258933333333334E+009,6.277165561914444E-002,7.541783899068832E-002,-7.500119805335999E-001,6.335688233375549E-001,6.277165561914444E-002,7.541783899068832E-002,-7.500119805335999E-001,6.335688233375549E-001,
1.267300000000000E+009,8.231959491968155E-002,6.493616849184036E-002,-7.310082316398621E-001,6.478090286254883E-001,8.231959491968155E-002,6.493616849184036E-002,-7.310082316398621E-001,6.478090286254883E-001,
1.275666666666667E+009,9.123954921960831E-002,4.699625819921494E-002,-7.187384366989136E-001,6.557046771049500E-001,9.123954921960831E-002,4.699625819921494E-002,-7.187384366989136E-001,6.557046771049500E-001,
1.284033333333334E+009,9.318055957555771E-002,2.604897692799568E-002,-7.023053169250488E-001,6.981105804443359E-001,9.318055957555771E-002,2.604897692799568E-002,-7.023053169250488E-001,6.981105804443359E-001,
1.292400000000000E+009,8.264257013797760E-002,7.687612902373076E-003,-6.903896927833557E-001,7.016772031784058E-001,8.264257013797760E-002,7.687612902373076E-003,-6.903896927833557E-001,7.016772031784058E-001,
1.300766666666667E+009,6.314326077699661E-002,-6.177970208227634E-004,-6.675500273704529E-001,7.258469462394714E-001,6.314326077699661E-002,-6.177970208227634E-004,-6.675500273704529E-001,7.258469462394714E-001,
1.309133333333334E+009,4.311604425311089E-002,9.889996144920588E-004,-6.425229310989380E-001,7.400756478309631E-001,4.311604425311089E-002,9.889996144920588E-004,-6.425229310989380E-001,7.400756478309631E-001,
1.317500000000000E+009,2.892647683620453E-002,1.300795562565327E-002,-6.294239163398743E-001,7.704830765724182E-001,2.892647683620453E-002,1.300795562565327E-002,-6.294239163398743E-001,7.704830765724182E-001,
1.325866666666667E+009,2.483781240880489E-002,3.006470389664173E-002,-6.094537377357483E-001,7.851516008377075E-001,2.483781240880489E-002,3.006470389664173E-002,-6.094537377357483E-001,7.851516008377075E-001,
1.334233333333334E+009,3.374352678656578E-002,4.767528921365738E-002,-5.908988714218140E-001,7.907745838165283E-001,3.374352678656578E-002,4.767528921365738E-002,-5.908988714218140E-001,7.907745838165283E-001,
1.342600000000000E+009,4.997376352548599E-002,5.655148625373840E-002,-5.735191702842712E-001,8.076669573783875E-001,4.997376352548599E-002,5.655148625373840E-002,-5.735191702842712E-001,8.076669573783875E-001,
1.350966666666667E+009,7.069878280162811E-002,5.366514995694161E-002,-5.471640229225159E-001,8.197885751724243E-001,7.069878280162811E-002,5.366514995694161E-002,-5.471640229225159E-001,8.197885751724243E-001,
1.359333333333334E+009,8.590199798345566E-002,4.014363139867783E-002,-5.342653989791870E-001,8.192488551139832E-001,8.590199798345566E-002,4.014363139867783E-002,-5.342653989791870E-001,8.192488551139832E-001,
1.367700000000000E+009,9.190315008163452E-002,2.043524011969566E-002,-5.005542635917664E-001,8.378121256828308E-001,9.190315008163452E-002,2.043524011969566E-002,-5.005542635917664E-001,8.378121256828308E-001,
1.376066666666667E+009,8.823816478252411E-002,-1.569932559505105E-003,-4.852362573146820E-001,8.472661375999451E-001,8.823816478252411E-002,-1.569932559505105E-003,-4.852362573146820E-001,8.472661375999451E-001,
1.384433333333334E+009,7.099492102861404E-002,-1.661000400781632E-002,-4.699522852897644E-001,8.780754208564758E-001,7.099492102861404E-002,-1.661000400781632E-002,-4.699522852897644E-001,8.780754208564758E-001,
1.392800000000000E+009,5.024760961532593E-002,-1.874179579317570E-002,-4.487719237804413E-001,8.865301012992859E-001,5.024760961532593E-002,-1.874179579317570E-002,-4.487719237804413E-001,8.865301012992859E-001,
1.401166666666667E+009,2.972459793090820E-002,-1.105032116174698E-002,-4.213050007820129E-001,8.935515880584717E-001,2.972459793090820E-002,-1.105032116174698E-002,-4.213050007820129E-001,8.935515880584717E-001,
1.409533333333334E+009,1.675523631274700E-002,6.258675362914801E-003,-3.917137682437897E-001,9.078606963157654E-001,1.675523631274700E-002,6.258675362914801E-003,-3.917137682437897E-001,9.078606963157654E-001,
1.417900000000000E+009,1.802400499582291E-002,2.967851608991623E-002,-3.720549046993256E-001,9.034801721572876E-001,1.802400499582291E-002,2.967851608991623E-002,-3.720549046993256E-001,9.034801721572876E-001,
1.426266666666667E+009,2.924283035099506E-002,4.635632410645485E-002,-3.350141942501068E-001,9.291391372680664E-001,2.924283035099506E-002,4.635632410645485E-002,-3.350141942501068E-001,9.291391372680664E-001,
1.434633333333334E+009,5.035766586661339E-002,5.439873039722443E-002,-3.255522251129150E-001,9.232261180877686E-001,5.035766586661339E-002,5.439873039722443E-002,-3.255522251129150E-001,9.232261180877686E-001,
1.443000000000000E+009,7.146359235048294E-002,5.134414508938789E-002,-3.012083768844605E-001,9.308240413665772E-001,7.146359235048294E-002,5.134414508938789E-002,-3.012083768844605E-001,9.308240413665772E-001,
1.451366666666667E+009,8.793405443429947E-002,3.555531427264214E-002,-2.753796577453613E-001,9.310742616653442E-001,8.793405443429947E-002,3.555531427264214E-002,-2.753796577453613E-001,9.310742616653442E-001,
1.459733333333334E+009,9.490850567817688E-002,1.521630492061377E-002,-2.499322891235352E-001,9.579980969429016E-001,9.490850567817688E-002,1.521630492061377E-002,-2.499322891235352E-001,9.579980969429016E-001,
