% Version 1.00
%
%freq[Hz],re:Trc1_S11,im:Trc1_S11,re:Trc2_S21,im:Trc2_S21,re:Trc3_S11,im:Trc3_S11,re:Trc4_S21,im:Trc4_S21,
6.900000000000000E+008,-4.976605996489525E-002,4.004810750484467E-002,-5.056275725364685E-001,-8.513668179512024E-001,-4.976605996489525E-002,4.004810750484467E-002,-5.056275725364685E-001,-8.513668179512024E-001,
6.983666666666666E+008,-4.157844185829163E-002,4.073058441281319E-002,-5.308851003646851E-001,-8.403101563453674E-001,-4.157844185829163E-002,4.073058441281319E-002,-5.308851003646851E-001,-8.403101563453674E-001,
7.067333333333334E+008,-3.546956181526184E-002,3.645384684205055E-002,-5.532477498054504E-001,-8.147168755531311E-001,-3.546956181526184E-002,3.645384684205055E-002,-5.532477498054504E-001,-8.147168755531311E-001,
7.151000000000000E+008,-3.479717299342156E-002,2.900342643260956E-002,-5.881429910659790E-001,-8.119793534278870E-001,-3.479717299342156E-002,2.900342643260956E-002,-5.881429910659790E-001,-8.119793534278870E-001,
7.234666666666666E+008,-3.661854565143585E-002,2.384912408888340E-002,-6.013940572738648E-001,-7.961524128913879E-001,-3.661854565143585E-002,2.384912408888340E-002,-6.013940572738648E-001,-7.961524128913879E-001,
7.318333333333334E+008,-4.393335804343224E-002,2.149508520960808E-002,-6.188942193984985E-001,-7.786235809326172E-001,-4.393335804343224E-002,2.149508520960808E-002,-6.188942193984985E-001,-7.786235809326172E-001,
7.402000000000000E+008,-5.017672479152679E-002,2.335237152874470E-002,-6.293619871139526E-001,-7.535242438316345E-001,-5.017672479152679E-002,2.335237152874470E-002,-6.293619871139526E-001,-7.535242438316345E-001,
7.485666666666666E+008,-5.564728006720543E-002,3.030617162585259E-002,-6.594289541244507E-001,-7.403370738029480E-001,-5.564728006720543E-002,3.030617162585259E-002,-6.594289541244507E-001,-7.403370738029480E-001,
7.569333333333334E+008,-5.960015580058098E-002,4.005996510386467E-002,-6.778327822685242E-001,-7.267451882362366E-001,-5.960015580058098E-002,4.005996510386467E-002,-6.778327822685242E-001,-7.267451882362366E-001,
7.653000000000000E+008,-5.423041433095932E-002,4.906057566404343E-002,-6.854279041290283E-001,-7.075589299201965E-001,-5.423041433095932E-002,4.906057566404343E-002,-6.854279041290283E-001,-7.075589299201965E-001,
7.736666666666666E+008,-4.784082621335983E-002,5.589900165796280E-002,-6.981216669082642E-001,-7.037455439567566E-001,-4.784082621335983E-002,5.589900165796280E-002,-6.981216669082642E-001,-7.037455439567566E-001,
7.820333333333334E+008,-3.900530561804771E-002,6.009519100189209E-002,-7.317220568656921E-001,-6.749989986419678E-001,-3.900530561804771E-002,6.009519100189209E-002,-7.317220568656921E-001,-6.749989986419678E-001,
7.904000000000000E+008,-2.883095480501652E-002,5.911154672503471E-002,-7.407487034797669E-001,-6.562330126762390E-001,-2.883095480501652E-002,5.911154672503471E-002,-7.407487034797669E-001,-6.562330126762390E-001,
7.987666666666666E+008,-2.417813986539841E-002,5.391885712742806E-002,-7.459356188774109E-001,-6.402217149734497E-001,-2.417813986539841E-002,5.391885712742806E-002,-7.459356188774109E-001,-6.402217149734497E-001,
8.071333333333334E+008,-2.210127562284470E-002,4.748484864830971E-002,-7.722082734107971E-001,-6.081541180610657E-001,-2.210127562284470E-002,4.748484864830971E-002,-7.722082734107971E-001,-6.081541180610657E-001,
8.155000000000000E+008,-2.491755783557892E-002,4.039232432842255E-002,-7.989686727523804E-001,-5.967143774032593E-001,-2.491755783557892E-002,4.039232432842255E-002,-7.989686727523804E-001,-5.967143774032593E-001,
8.238666666666666E+008,-3.164613619446755E-002,3.851615265011787E-002,-8.049772977828980E-001,-5.732395052909851E-001,-3.164613619446755E-002,3.851615265011787E-002,-8.049772977828980E-001,-5.732395052909851E-001,
8.322333333333334E+008,-3.730967268347740E-002,4.001768678426743E-002,-8.142486810684204E-001,-5.549656748771668E-001,-3.730967268347740E-002,4.001768678426743E-002,-8.142486810684204E-001,-5.549656748771668E-001,
8.406000000000000E+008,-4.213647544384003E-002,4.336603730916977E-002,-8.258992433547974E-001,-5.324596762657166E-001,-4.213647544384003E-002,4.336603730916977E-002,-8.258992433547974E-001,-5.324596762657166E-001,
8.489666666666668E+008,-4.375311359763145E-002,5.464592576026917E-002,-8.375243544578552E-001,-5.030867457389832E-001,-4.375311359763145E-002,5.464592576026917E-002,-8.375243544578552E-001,-5.030867457389832E-001,
8.573333333333334E+008,-4.157617688179016E-002,6.252869963645935E-002,-8.393030166625977E-001,-4.726185202598572E-001,-4.157617688179016E-002,6.252869963645935E-002,-8.393030166625977E-001,-4.726185202598572E-001,
8.657000000000000E+008,-3.609508648514748E-002,7.011821866035461E-002,-8.670224547386169E-001,-4.768190681934357E-001,-3.609508648514748E-002,7.011821866035461E-002,-8.670224547386169E-001,-4.768190681934357E-001,
8.740666666666668E+008,-2.673938684165478E-002,7.513095438480377E-002,-8.730499744415283E-001,-4.519291520118713E-001,-2.673938684165478E-002,7.513095438480377E-002,-8.730499744415283E-001,-4.519291520118713E-001,
8.824333333333334E+008,-1.836308836936951E-002,7.649020850658417E-002,-8.911155462265015E-001,-4.273922145366669E-001,-1.836308836936951E-002,7.649020850658417E-002,-8.911155462265015E-001,-4.273922145366669E-001,
8.908000000000000E+008,-1.010661385953426E-002,7.281478494405747E-002,-9.046698808670044E-001,-4.102756977081299E-001,-1.010661385953426E-002,7.281478494405747E-002,-9.046698808670044E-001,-4.102756977081299E-001,
8.991666666666668E+008,-4.549833480268717E-003,6.674192100763321E-002,-9.047955274581909E-001,-3.830869495868683E-001,-4.549833480268717E-003,6.674192100763321E-002,-9.047955274581909E-001,-3.830869495868683E-001,
9.075333333333334E+008,-4.147941712290049E-003,5.928334593772888E-002,-9.188227057456970E-001,-3.577364683151245E-001,-4.147941712290049E-003,5.928334593772888E-002,-9.188227057456970E-001,-3.577364683151245E-001,
9.159000000000000E+008,-7.136152125895023E-003,5.366213992238045E-002,-9.399852156639099E-001,-3.326406180858612E-001,-7.136152125895023E-003,5.366213992238045E-002,-9.399852156639099E-001,-3.326406180858612E-001,
9.242666666666668E+008,-1.389754563570023E-002,5.409690365195274E-002,-9.314070343971252E-001,-3.108861446380615E-001,-1.389754563570023E-002,5.409690365195274E-002,-9.314070343971252E-001,-3.108861446380615E-001,
9.326333333333334E+008,-1.893751882016659E-002,5.658276006579399E-002,-9.475391507148743E-001,-2.967248558998108E-001,-1.893751882016659E-002,5.658276006579399E-002,-9.475391507148743E-001,-2.967248558998108E-001,
9.410000000000000E+008,-2.279370836913586E-002,6.108292564749718E-002,-9.573155045509338E-001,-2.603262364864349E-001,-2.279370836913586E-002,6.108292564749718E-002,-9.573155045509338E-001,-2.603262364864349E-001,
9.493666666666668E+008,-2.400376275181770E-002,7.035379856824875E-002,-9.617130160331726E-001,-2.296700924634934E-001,-2.400376275181770E-002,7.035379856824875E-002,-9.617130160331726E-001,-2.296700924634934E-001,
9.577333333333334E+008,-2.002369239926338E-002,8.004862070083618E-002,-9.675853848457336E-001,-2.163466364145279E-001,-2.002369239926338E-002,8.004862070083618E-002,-9.675853848457336E-001,-2.163466364145279E-001,
9.661000000000000E+008,-1.099551748484373E-002,8.637613803148270E-002,-9.686530828475952E-001,-1.741464436054230E-001,-1.099551748484373E-002,8.637613803148270E-002,-9.686530828475952E-001,-1.741464436054230E-001,
9.744666666666668E+008,-7.715432730037719E-005,8.613805472850800E-002,-9.661484956741333E-001,-1.635683178901672E-001,-7.715432730037719E-005,8.613805472850800E-002,-9.661484956741333E-001,-1.635683178901672E-001,
9.828333333333334E+008,9.176271036267281E-003,8.683823794126511E-002,-9.815933704376221E-001,-1.435271799564362E-001,9.176271036267281E-003,8.683823794126511E-002,-9.815933704376221E-001,-1.435271799564362E-001,
9.912000000000000E+008,1.959294825792313E-002,8.006164431571960E-002,-9.788292050361633E-001,-1.216869801282883E-001,1.959294825792313E-002,8.006164431571960E-002,-9.788292050361633E-001,-1.216869801282883E-001,
9.995666666666668E+008,2.327637746930122E-002,7.228490710258484E-002,-9.912536144256592E-001,-8.427453786134720E-002,2.327637746930122E-002,7.228490710258484E-002,-9.912536144256592E-001,-8.427453786134720E-002,
1.007933333333333E+009,2.689000405371189E-002,6.297547370195389E-002,-1.004431247711182E+000,-6.624437868595123E-002,2.689000405371189E-002,6.297547370195389E-002,-1.004431247711182E+000,-6.624437868595123E-002,
1.016300000000000E+009,2.088797092437744E-002,5.736074969172478E-002,-9.902800917625427E-001,-4.037378728389740E-002,2.088797092437744E-002,5.736074969172478E-002,-9.902800917625427E-001,-4.037378728389740E-002,
1.024666666666667E+009,1.334438752382994E-002,5.405888333916664E-002,-9.859365820884705E-001,-1.423165854066610E-002,1.334438752382994E-002,5.405888333916664E-002,-9.859365820884705E-001,-1.423165854066610E-002,
1.033033333333333E+009,8.670917712152004E-003,5.907472595572472E-002,-9.922894239425659E-001,1.253435015678406E-002,8.670917712152004E-003,5.907472595572472E-002,-9.922894239425659E-001,1.253435015678406E-002,
1.041400000000000E+009,2.352792071178556E-003,6.416282057762146E-002,-9.913303852081299E-001,3.348022699356079E-002,2.352792071178556E-003,6.416282057762146E-002,-9.913303852081299E-001,3.348022699356079E-002,
1.049766666666667E+009,5.866993684321642E-003,7.339245080947876E-002,-9.769225716590881E-001,6.893192231655121E-002,5.866993684321642E-003,7.339245080947876E-002,-9.769225716590881E-001,6.893192231655121E-002,
1.058133333333333E+009,1.038930471986532E-002,8.211331814527512E-002,-9.786095023155212E-001,9.075256437063217E-002,1.038930471986532E-002,8.211331814527512E-002,-9.786095023155212E-001,9.075256437063217E-002,
1.066500000000000E+009,2.170201763510704E-002,8.566171675920487E-002,-9.927219748497009E-001,1.250274330377579E-001,2.170201763510704E-002,8.566171675920487E-002,-9.927219748497009E-001,1.250274330377579E-001,
1.074866666666667E+009,3.519737347960472E-002,8.373910188674927E-002,-9.863677024841309E-001,1.448549926280975E-001,3.519737347960472E-002,8.373910188674927E-002,-9.863677024841309E-001,1.448549926280975E-001,
1.083233333333334E+009,4.358853027224541E-002,7.519291341304779E-002,-9.697410464286804E-001,1.650708913803101E-001,4.358853027224541E-002,7.519291341304779E-002,-9.697410464286804E-001,1.650708913803101E-001,
1.091600000000000E+009,4.990218579769135E-002,6.440831720829010E-002,-9.523819684982300E-001,1.846883744001389E-001,4.990218579769135E-002,6.440831720829010E-002,-9.523819684982300E-001,1.846883744001389E-001,
1.099966666666667E+009,4.890802130103111E-002,5.106066912412643E-002,-9.473607540130615E-001,2.227821201086044E-001,4.890802130103111E-002,5.106066912412643E-002,-9.473607540130615E-001,2.227821201086044E-001,
1.108333333333334E+009,4.102699458599091E-002,4.354739561676979E-002,-9.475382566452026E-001,2.306943833827972E-001,4.102699458599091E-002,4.354739561676979E-002,-9.475382566452026E-001,2.306943833827972E-001,
1.116700000000000E+009,3.105000592768192E-002,4.080092534422875E-002,-9.402872323989868E-001,2.643280327320099E-001,3.105000592768192E-002,4.080092534422875E-002,-9.402872323989868E-001,2.643280327320099E-001,
1.125066666666667E+009,2.057443745434284E-002,4.580451920628548E-002,-9.406732916831970E-001,2.812672853469849E-001,2.057443745434284E-002,4.580451920628548E-002,-9.406732916831970E-001,2.812672853469849E-001,
1.133433333333334E+009,1.343053951859474E-002,5.579591169953346E-002,-9.376535415649414E-001,3.263317644596100E-001,1.343053951859474E-002,5.579591169953346E-002,-9.376535415649414E-001,3.263317644596100E-001,
1.141800000000000E+009,1.273677218705416E-002,6.915039569139481E-002,-9.144982099533081E-001,3.407264351844788E-001,1.273677218705416E-002,6.915039569139481E-002,-9.144982099533081E-001,3.407264351844788E-001,
1.150166666666667E+009,2.197701856493950E-002,8.295612782239914E-002,-9.059118628501892E-001,3.411222696304321E-001,2.197701856493950E-002,8.295612782239914E-002,-9.059118628501892E-001,3.411222696304321E-001,
1.158533333333334E+009,3.799014165997505E-002,8.945194631814957E-002,-8.979258537292481E-001,3.815876543521881E-001,3.799014165997505E-002,8.945194631814957E-002,-8.979258537292481E-001,3.815876543521881E-001,
1.166900000000000E+009,5.699187889695168E-002,8.871199190616608E-002,-8.810181617736816E-001,4.015256464481354E-001,5.699187889695168E-002,8.871199190616608E-002,-8.810181617736816E-001,4.015256464481354E-001,
1.175266666666667E+009,7.239113003015518E-002,7.735922932624817E-002,-8.753256201744080E-001,4.300052821636200E-001,7.239113003015518E-002,7.735922932624817E-002,-8.753256201744080E-001,4.300052821636200E-001,
1.183633333333334E+009,8.391717076301575E-002,6.224098056554794E-002,-8.740112781524658E-001,4.420957565307617E-001,8.391717076301575E-002,6.224098056554794E-002,-8.740112781524658E-001,4.420957565307617E-001,
1.192000000000000E+009,8.366112411022186E-002,4.339018091559410E-002,-8.610752820968628E-001,4.646856486797333E-001,8.366112411022186E-002,4.339018091559410E-002,-8.610752820968628E-001,4.646856486797333E-001,
1.200366666666667E+009,7.438372820615768E-002,2.716449834406376E-002,-8.483532667160034E-001,4.857642948627472E-001,7.438372820615768E-002,2.716449834406376E-002,-8.483532667160034E-001,4.857642948627472E-001,
1.208733333333334E+009,6.005375832319260E-002,1.872654445469379E-002,-8.413943052291870E-001,5.277449488639832E-001,6.005375832319260E-002,1.872654445469379E-002,-8.413943052291870E-001,5.277449488639832E-001,
1.217100000000000E+009,4.482580721378326E-002,2.021909132599831E-002,-8.371629714965820E-001,5.374292731285095E-001,4.482580721378326E-002,2.021909132599831E-002,-8.371629714965820E-001,5.374292731285095E-001,
1.225466666666667E+009,3.326289728283882E-002,3.138595819473267E-002,-8.045012950897217E-001,5.618921518325806E-001,3.326289728283882E-002,3.138595819473267E-002,-8.045012950897217E-001,5.618921518325806E-001,
1.233833333333334E+009,2.942277118563652E-002,4.787908867001534E-002,-7.994719147682190E-001,5.730594396591187E-001,2.942277118563652E-002,4.787908867001534E-002,-7.994719147682190E-001,5.730594396591187E-001,
1.242200000000000E+009,3.813135996460915E-002,6.189571693539619E-002,-7.739021778106690E-001,6.062140464782715E-001,3.813135996460915E-002,6.189571693539619E-002,-7.739021778106690E-001,6.062140464782715E-001,
1.250566666666667E+009,5.129345133900642E-002,7.145292311906815E-002,-7.521473765373230E-001,6.114084124565125E-001,5.129345133900642E-002,7.145292311906815E-002,-7.521473765373230E-001,6.114084124565125E-001,
1.258933333333334E+009,7.133535295724869E-002,7.103537768125534E-002,-7.463710904121399E-001,6.332631707191467E-001,7.133535295724869E-002,7.103537768125534E-002,-7.463710904121399E-001,6.332631707191467E-001,
1.267300000000000E+009,9.034572541713715E-002,5.984279513359070E-002,-7.276601791381836E-001,6.472035050392151E-001,9.034572541713715E-002,5.984279513359070E-002,-7.276601791381836E-001,6.472035050392151E-001,
1.275666666666667E+009,9.884139895439148E-002,4.162830114364624E-002,-7.152751088142395E-001,6.551723480224609E-001,9.884139895439148E-002,4.162830114364624E-002,-7.152751088142395E-001,6.551723480224609E-001,
1.284033333333334E+009,1.006280630826950E-001,2.042004652321339E-002,-6.987222433090210E-001,6.972891092300415E-001,1.006280630826950E-001,2.042004652321339E-002,-6.987222433090210E-001,6.972891092300415E-001,
1.292400000000000E+009,9.045888483524323E-002,1.790799549780786E-003,-6.867237687110901E-001,7.007994055747986E-001,9.045888483524323E-002,1.790799549780786E-003,-6.867237687110901E-001,7.007994055747986E-001,
1.300766666666667E+009,7.160393893718720E-002,-6.616393104195595E-003,-6.642341017723084E-001,7.248806953430176E-001,7.160393893718720E-002,-6.616393104195595E-003,-6.642341017723084E-001,7.248806953430176E-001,
1.309133333333334E+009,5.215077474713326E-002,-5.132385995239019E-003,-6.396193504333496E-001,7.389636039733887E-001,5.215077474713326E-002,-5.132385995239019E-003,-6.396193504333496E-001,7.389636039733887E-001,
1.317500000000000E+009,3.842673450708389E-002,6.858949549496174E-003,-6.263167858123779E-001,7.696347832679749E-001,3.842673450708389E-002,6.858949549496174E-003,-6.263167858123779E-001,7.696347832679749E-001,
1.325866666666667E+009,3.455849364399910E-002,2.372927218675613E-002,-6.059795618057251E-001,7.843495607376099E-001,3.455849364399910E-002,2.372927218675613E-002,-6.059795618057251E-001,7.843495607376099E-001,
1.334233333333334E+009,4.326807335019112E-002,4.105484858155251E-002,-5.873330235481262E-001,7.901044487953186E-001,4.326807335019112E-002,4.105484858155251E-002,-5.873330235481262E-001,7.901044487953186E-001,
1.342600000000000E+009,5.895723029971123E-002,4.962730035185814E-002,-5.695767998695374E-001,8.071536421775818E-001,5.895723029971123E-002,4.962730035185814E-002,-5.695767998695374E-001,8.071536421775818E-001,
1.350966666666667E+009,7.892914116382599E-002,4.630285128951073E-002,-5.427114963531494E-001,8.189759254455566E-001,7.892914116382599E-002,4.630285128951073E-002,-5.427114963531494E-001,8.189759254455566E-001,
1.359333333333334E+009,9.336986392736435E-002,3.242734447121620E-002,-5.297600626945496E-001,8.177466392517090E-001,9.336986392736435E-002,3.242734447121620E-002,-5.297600626945496E-001,8.177466392517090E-001,
1.367700000000000E+009,9.868734329938889E-002,1.246450748294592E-002,-4.966350197792053E-001,8.361219763755798E-001,9.868734329938889E-002,1.246450748294592E-002,-4.966350197792053E-001,8.361219763755798E-001,
1.376066666666667E+009,9.452624619007111E-002,-9.859182871878147E-003,-4.813959002494812E-001,8.454012274742127E-001,9.452624619007111E-002,-9.859182871878147E-003,-4.813959002494812E-001,8.454012274742127E-001,
1.384433333333334E+009,7.735567539930344E-002,-2.523162402212620E-002,-4.657570421695709E-001,8.758210539817810E-001,7.735567539930344E-002,-2.523162402212620E-002,-4.657570421695709E-001,8.758210539817810E-001,
1.392800000000000E+009,5.707313492894173E-002,-2.774935960769653E-002,-4.449142515659332E-001,8.839485645294190E-001,5.707313492894173E-002,-2.774935960769653E-002,-4.449142515659332E-001,8.839485645294190E-001,
1.401166666666667E+009,3.732266649603844E-002,-2.058567665517330E-002,-4.177561998367310E-001,8.912358283996582E-001,3.732266649603844E-002,-2.058567665517330E-002,-4.177561998367310E-001,8.912358283996582E-001,
1.409533333333334E+009,2.460612729191780E-002,-3.699938533827663E-003,-3.881264925003052E-001,9.055655598640442E-001,2.460612729191780E-002,-3.699938533827663E-003,-3.881264925003052E-001,9.055655598640442E-001,
1.417900000000000E+009,2.625431492924690E-002,1.920553855597973E-002,-3.684352636337280E-001,9.013054370880127E-001,2.625431492924690E-002,1.920553855597973E-002,-3.684352636337280E-001,9.013054370880127E-001,
1.426266666666667E+009,3.752404078841209E-002,3.578146547079086E-002,-3.312288224697113E-001,9.270223379135132E-001,3.752404078841209E-002,3.578146547079086E-002,-3.312288224697113E-001,9.270223379135132E-001,
1.434633333333334E+009,5.830806866288185E-002,4.377163946628571E-002,-3.217119574546814E-001,9.206700325012207E-001,5.830806866288185E-002,4.377163946628571E-002,-3.217119574546814E-001,9.206700325012207E-001,
1.443000000000000E+009,7.882889360189438E-002,4.076482355594635E-002,-2.973823249340057E-001,9.280257225036621E-001,7.882889360189438E-002,4.076482355594635E-002,-2.973823249340057E-001,9.280257225036621E-001,
1.451366666666667E+009,9.447873383760452E-002,2.501762472093105E-002,-2.716143727302551E-001,9.279596209526062E-001,9.447873383760452E-002,2.501762472093105E-002,-2.716143727302551E-001,9.279596209526062E-001,
1.459733333333334E+009,1.007166504859924E-001,4.600258078426123E-003,-2.463749945163727E-001,9.542354345321655E-001,1.007166504859924E-001,4.600258078426123E-003,-2.463749945163727E-001,9.542354345321655E-001,
