% Version 1.00
%
%freq[Hz],re:Trc1_S11,im:Trc1_S11,re:Trc2_S21,im:Trc2_S21,re:Trc3_S11,im:Trc3_S11,re:Trc4_S21,im:Trc4_S21,
6.900000000000000E+008,-4.464795440435410E-002,3.700923174619675E-002,-5.015154480934143E-001,-8.509981036186218E-001,-4.464795440435410E-002,3.700923174619675E-002,-5.015154480934143E-001,-8.509981036186218E-001,
6.983666666666666E+008,-3.663600236177445E-002,3.745151311159134E-002,-5.264269709587097E-001,-8.404052853584290E-001,-3.663600236177445E-002,3.745151311159134E-002,-5.264269709587097E-001,-8.404052853584290E-001,
7.067333333333334E+008,-3.071941435337067E-002,3.291414305567741E-002,-5.491989850997925E-001,-8.147045969963074E-001,-3.071941435337067E-002,3.291414305567741E-002,-5.491989850997925E-001,-8.147045969963074E-001,
7.151000000000000E+008,-3.024206496775150E-002,2.515562810003758E-002,-5.845205187797546E-001,-8.125682473182678E-001,-3.024206496775150E-002,2.515562810003758E-002,-5.845205187797546E-001,-8.125682473182678E-001,
7.234666666666666E+008,-3.217806294560432E-002,1.976911164820194E-002,-5.981492996215820E-001,-7.975714206695557E-001,-3.217806294560432E-002,1.976911164820194E-002,-5.981492996215820E-001,-7.975714206695557E-001,
7.318333333333334E+008,-3.954484686255455E-002,1.724306307733059E-002,-6.156101822853088E-001,-7.802377343177795E-001,-3.954484686255455E-002,1.724306307733059E-002,-6.156101822853088E-001,-7.802377343177795E-001,
7.402000000000000E+008,-4.573952406644821E-002,1.894358918070793E-002,-6.260863542556763E-001,-7.550078034400940E-001,-4.573952406644821E-002,1.894358918070793E-002,-6.260863542556763E-001,-7.550078034400940E-001,
7.485666666666666E+008,-5.106004700064659E-002,2.573976851999760E-002,-6.561014652252197E-001,-7.418432235717773E-001,-5.106004700064659E-002,2.573976851999760E-002,-6.561014652252197E-001,-7.418432235717773E-001,
7.569333333333334E+008,-5.491048097610474E-002,3.542790561914444E-002,-6.746106147766113E-001,-7.285244464874268E-001,-5.491048097610474E-002,3.542790561914444E-002,-6.746106147766113E-001,-7.285244464874268E-001,
7.653000000000000E+008,-4.956340044736862E-002,4.435812309384346E-002,-6.822864413261414E-001,-7.094483971595764E-001,-4.956340044736862E-002,4.435812309384346E-002,-6.822864413261414E-001,-7.094483971595764E-001,
7.736666666666666E+008,-4.323396459221840E-002,5.107637867331505E-002,-6.948735713958740E-001,-7.052985429763794E-001,-4.323396459221840E-002,5.107637867331505E-002,-6.948735713958740E-001,-7.052985429763794E-001,
7.820333333333334E+008,-3.451657295227051E-002,5.528898164629936E-002,-7.284372448921204E-001,-6.772270202636719E-001,-3.451657295227051E-002,5.528898164629936E-002,-7.284372448921204E-001,-6.772270202636719E-001,
7.904000000000000E+008,-2.458072081208229E-002,5.422191321849823E-002,-7.374137043952942E-001,-6.586788892745972E-001,-2.458072081208229E-002,5.422191321849823E-002,-7.374137043952942E-001,-6.586788892745972E-001,
7.987666666666666E+008,-2.030733227729797E-002,4.901352897286415E-002,-7.430451512336731E-001,-6.428446769714356E-001,-2.030733227729797E-002,4.901352897286415E-002,-7.430451512336731E-001,-6.428446769714356E-001,
8.071333333333334E+008,-1.832376793026924E-002,4.252160713076592E-002,-7.690887451171875E-001,-6.110078096389771E-001,-1.832376793026924E-002,4.252160713076592E-002,-7.690887451171875E-001,-6.110078096389771E-001,
8.155000000000000E+008,-2.137820236384869E-002,3.536305576562882E-002,-7.958226799964905E-001,-5.999173521995544E-001,-2.137820236384869E-002,3.536305576562882E-002,-7.958226799964905E-001,-5.999173521995544E-001,
8.238666666666666E+008,-2.809965424239636E-002,3.318536281585693E-002,-8.022559285163879E-001,-5.766044855117798E-001,-2.809965424239636E-002,3.318536281585693E-002,-8.022559285163879E-001,-5.766044855117798E-001,
8.322333333333334E+008,-3.375370800495148E-002,3.438163921236992E-002,-8.118427395820618E-001,-5.589736700057983E-001,-3.375370800495148E-002,3.438163921236992E-002,-8.118427395820618E-001,-5.589736700057983E-001,
8.406000000000000E+008,-3.844362497329712E-002,3.744348883628845E-002,-8.236967325210571E-001,-5.360793471336365E-001,-3.844362497329712E-002,3.744348883628845E-002,-8.236967325210571E-001,-5.360793471336365E-001,
8.489666666666668E+008,-4.005391523241997E-002,4.846291244029999E-002,-8.355025649070740E-001,-5.070941448211670E-001,-4.005391523241997E-002,4.846291244029999E-002,-8.355025649070740E-001,-5.070941448211670E-001,
8.573333333333334E+008,-3.791585937142372E-002,5.625303834676743E-002,-8.375727534294128E-001,-4.765374660491943E-001,-3.791585937142372E-002,5.625303834676743E-002,-8.375727534294128E-001,-4.765374660491943E-001,
8.657000000000000E+008,-3.257997706532478E-002,6.390278041362763E-002,-8.657098412513733E-001,-4.803622663021088E-001,-3.257997706532478E-002,6.390278041362763E-002,-8.657098412513733E-001,-4.803622663021088E-001,
8.740666666666668E+008,-2.337177470326424E-002,6.906566023826599E-002,-8.715062737464905E-001,-4.556591212749481E-001,-2.337177470326424E-002,6.906566023826599E-002,-8.715062737464905E-001,-4.556591212749481E-001,
8.824333333333334E+008,-1.505336817353964E-002,7.060106843709946E-002,-8.898437619209290E-001,-4.314672052860260E-001,-1.505336817353964E-002,7.060106843709946E-002,-8.898437619209290E-001,-4.314672052860260E-001,
8.908000000000000E+008,-6.918563973158598E-003,6.714902073144913E-002,-9.035515785217285E-001,-4.135267436504364E-001,-6.918563973158598E-003,6.714902073144913E-002,-9.035515785217285E-001,-4.135267436504364E-001,
8.991666666666668E+008,-1.453034579753876E-003,6.111590191721916E-002,-9.033533930778503E-001,-3.861688077449799E-001,-1.453034579753876E-003,6.111590191721916E-002,-9.033533930778503E-001,-3.861688077449799E-001,
9.075333333333334E+008,-1.129930373281241E-003,5.342342704534531E-002,-9.175947904586792E-001,-3.610539734363556E-001,-1.129930373281241E-003,5.342342704534531E-002,-9.175947904586792E-001,-3.610539734363556E-001,
9.159000000000000E+008,-4.045329988002777E-003,4.747219383716583E-002,-9.386513233184815E-001,-3.364152610301971E-001,-4.045329988002777E-003,4.747219383716583E-002,-9.386513233184815E-001,-3.364152610301971E-001,
9.242666666666668E+008,-1.092457585036755E-002,4.733284190297127E-002,-9.300355315208435E-001,-3.146719932556152E-001,-1.092457585036755E-002,4.733284190297127E-002,-9.300355315208435E-001,-3.146719932556152E-001,
9.326333333333334E+008,-1.607738621532917E-002,4.927058517932892E-002,-9.456657171249390E-001,-3.006115853786469E-001,-1.607738621532917E-002,4.927058517932892E-002,-9.456657171249390E-001,-3.006115853786469E-001,
9.410000000000000E+008,-2.017872594296932E-002,5.338985472917557E-002,-9.564517140388489E-001,-2.645800113677979E-001,-2.017872594296932E-002,5.338985472917557E-002,-9.564517140388489E-001,-2.645800113677979E-001,
9.493666666666668E+008,-2.169097959995270E-002,6.246919557452202E-002,-9.609373807907105E-001,-2.339131683111191E-001,-2.169097959995270E-002,6.246919557452202E-002,-9.609373807907105E-001,-2.339131683111191E-001,
9.577333333333334E+008,-1.796082034707069E-002,7.218525558710098E-002,-9.670163989067078E-001,-2.202589809894562E-001,-1.796082034707069E-002,7.218525558710098E-002,-9.670163989067078E-001,-2.202589809894562E-001,
9.661000000000000E+008,-9.040702134370804E-003,7.886169850826263E-002,-9.676943421363831E-001,-1.783162355422974E-001,-9.040702134370804E-003,7.886169850826263E-002,-9.676943421363831E-001,-1.783162355422974E-001,
9.744666666666668E+008,1.899085007607937E-003,7.921077311038971E-002,-9.659366607666016E-001,-1.686339378356934E-001,1.899085007607937E-003,7.921077311038971E-002,-9.659366607666016E-001,-1.686339378356934E-001,
9.828333333333334E+008,1.128918398171663E-002,8.020385354757309E-002,-9.814062714576721E-001,-1.484734416007996E-001,1.128918398171663E-002,8.020385354757309E-002,-9.814062714576721E-001,-1.484734416007996E-001,
9.912000000000000E+008,2.183952555060387E-002,7.373880594968796E-002,-9.786638021469116E-001,-1.264191865921021E-001,2.183952555060387E-002,7.373880594968796E-002,-9.786638021469116E-001,-1.264191865921021E-001,
9.995666666666668E+008,2.552519366145134E-002,6.581176817417145E-002,-9.910876154899597E-001,-8.934918791055679E-002,2.552519366145134E-002,6.581176817417145E-002,-9.910876154899597E-001,-8.934918791055679E-002,
1.007933333333333E+009,2.885404042899609E-002,5.608960241079330E-002,-1.004727363586426E+000,-7.217856496572495E-002,2.885404042899609E-002,5.608960241079330E-002,-1.004727363586426E+000,-7.217856496572495E-002,
1.016300000000000E+009,2.248325571417809E-002,4.984330758452416E-002,-9.908187389373779E-001,-4.588638991117477E-002,2.248325571417809E-002,4.984330758452416E-002,-9.908187389373779E-001,-4.588638991117477E-002,
1.024666666666667E+009,1.450388878583908E-002,4.587538167834282E-002,-9.869185090065002E-001,-1.985702104866505E-002,1.450388878583908E-002,4.587538167834282E-002,-9.869185090065002E-001,-1.985702104866505E-002,
1.033033333333333E+009,9.228738024830818E-003,5.036352947354317E-002,-9.936279058456421E-001,6.550779100507498E-003,9.228738024830818E-003,5.036352947354317E-002,-9.936279058456421E-001,6.550779100507498E-003,
1.041400000000000E+009,2.474974608048797E-003,5.529845133423805E-002,-9.938817620277405E-001,2.796710282564163E-002,2.474974608048797E-003,5.529845133423805E-002,-9.938817620277405E-001,2.796710282564163E-002,
1.049766666666667E+009,5.706063006073237E-003,6.472025066614151E-002,-9.790623188018799E-001,6.382213532924652E-002,5.706063006073237E-003,6.472025066614151E-002,-9.790623188018799E-001,6.382213532924652E-002,
1.058133333333333E+009,1.028155069798231E-002,7.374726235866547E-002,-9.807594418525696E-001,8.583555370569229E-002,1.028155069798231E-002,7.374726235866547E-002,-9.807594418525696E-001,8.583555370569229E-002,
1.066500000000000E+009,2.187616564333439E-002,7.786849141120911E-002,-9.954032301902771E-001,1.200306564569473E-001,2.187616564333439E-002,7.786849141120911E-002,-9.954032301902771E-001,1.200306564569473E-001,
1.074866666666667E+009,3.581243753433228E-002,7.641957700252533E-002,-9.890916347503662E-001,1.402632594108582E-001,3.581243753433228E-002,7.641957700252533E-002,-9.890916347503662E-001,1.402632594108582E-001,
1.083233333333334E+009,4.472342506051064E-002,6.818134337663651E-002,-9.723114967346191E-001,1.610862612724304E-001,4.472342506051064E-002,6.818134337663651E-002,-9.723114967346191E-001,1.610862612724304E-001,
1.091600000000000E+009,5.134774371981621E-002,5.734078213572502E-002,-9.548687338829041E-001,1.805100440979004E-001,5.134774371981621E-002,5.734078213572502E-002,-9.548687338829041E-001,1.805100440979004E-001,
1.099966666666667E+009,5.038024857640266E-002,4.375334456562996E-002,-9.500834345817566E-001,2.186562269926071E-001,5.038024857640266E-002,4.375334456562996E-002,-9.500834345817566E-001,2.186562269926071E-001,
1.108333333333334E+009,4.201958328485489E-002,3.567595407366753E-002,-9.503712058067322E-001,2.268487364053726E-001,4.201958328485489E-002,3.567595407366753E-002,-9.503712058067322E-001,2.268487364053726E-001,
1.116700000000000E+009,3.128411248326302E-002,3.231891989707947E-002,-9.428407549858093E-001,2.606173455715179E-001,3.128411248326302E-002,3.231891989707947E-002,-9.428407549858093E-001,2.606173455715179E-001,
1.125066666666667E+009,1.987667940557003E-002,3.686628490686417E-002,-9.435825347900391E-001,2.771472036838532E-001,1.987667940557003E-002,3.686628490686417E-002,-9.435825347900391E-001,2.771472036838532E-001,
1.133433333333334E+009,1.189055852591991E-002,4.663160443305969E-002,-9.408822655677795E-001,3.220286369323731E-001,1.189055852591991E-002,4.663160443305969E-002,-9.408822655677795E-001,3.220286369323731E-001,
1.141800000000000E+009,1.061038114130497E-002,5.998960882425308E-002,-9.178811907768250E-001,3.363652825355530E-001,1.061038114130497E-002,5.998960882425308E-002,-9.178811907768250E-001,3.363652825355530E-001,
1.150166666666667E+009,1.970979943871498E-002,7.411473989486694E-002,-9.088677763938904E-001,3.372385501861572E-001,1.970979943871498E-002,7.411473989486694E-002,-9.088677763938904E-001,3.372385501861572E-001,
1.158533333333334E+009,3.583771735429764E-002,8.088478446006775E-002,-9.015231728553772E-001,3.772920668125153E-001,3.583771735429764E-002,8.088478446006775E-002,-9.015231728553772E-001,3.772920668125153E-001,
1.166900000000000E+009,5.527997016906738E-002,8.046632260084152E-002,-8.848371505737305E-001,3.971544504165649E-001,5.527997016906738E-002,8.046632260084152E-002,-8.848371505737305E-001,3.971544504165649E-001,
1.175266666666667E+009,7.136074453592300E-002,6.934281438589096E-002,-8.789934515953064E-001,4.267228841781616E-001,7.136074453592300E-002,6.934281438589096E-002,-8.789934515953064E-001,4.267228841781616E-001,
1.183633333333334E+009,8.342806249856949E-002,5.438194796442986E-002,-8.778757452964783E-001,4.386343359947205E-001,8.342806249856949E-002,5.438194796442986E-002,-8.778757452964783E-001,4.386343359947205E-001,
1.192000000000000E+009,8.332670480012894E-002,3.543553873896599E-002,-8.649727702140808E-001,4.608701169490814E-001,8.332670480012894E-002,3.543553873896599E-002,-8.649727702140808E-001,4.608701169490814E-001,
1.200366666666667E+009,7.366234064102173E-002,1.892021112143993E-002,-8.521819710731506E-001,4.823115468025208E-001,7.366234064102173E-002,1.892021112143993E-002,-8.521819710731506E-001,4.823115468025208E-001,
1.208733333333334E+009,5.844943597912788E-002,1.024282723665237E-002,-8.454220890998840E-001,5.241880416870117E-001,5.844943597912788E-002,1.024282723665237E-002,-8.454220890998840E-001,5.241880416870117E-001,
1.217100000000000E+009,4.223071038722992E-002,1.165439374744892E-002,-8.412925601005554E-001,5.341199636459351E-001,4.223071038722992E-002,1.165439374744892E-002,-8.412925601005554E-001,5.341199636459351E-001,
1.225466666666667E+009,2.975117415189743E-002,2.271646633744240E-002,-8.085931539535523E-001,5.584450960159302E-001,2.975117415189743E-002,2.271646633744240E-002,-8.085931539535523E-001,5.584450960159302E-001,
1.233833333333334E+009,2.533427067101002E-002,3.933258727192879E-002,-8.037664294242859E-001,5.700932145118713E-001,2.533427067101002E-002,3.933258727192879E-002,-8.037664294242859E-001,5.700932145118713E-001,
1.242200000000000E+009,3.377394005656242E-002,5.353664979338646E-002,-7.780604362487793E-001,6.036449670791626E-001,3.377394005656242E-002,5.353664979338646E-002,-7.780604362487793E-001,6.036449670791626E-001,
1.250566666666667E+009,4.714042320847511E-002,6.321518868207932E-002,-7.562286257743835E-001,6.086223721504211E-001,4.714042320847511E-002,6.321518868207932E-002,-7.562286257743835E-001,6.086223721504211E-001,
1.258933333333334E+009,6.777107715606690E-002,6.277021765708923E-002,-7.512606978416443E-001,6.308846473693848E-001,6.777107715606690E-002,6.277021765708923E-002,-7.512606978416443E-001,6.308846473693848E-001,
1.267300000000000E+009,8.729037642478943E-002,5.142190679907799E-002,-7.318167090415955E-001,6.447752714157105E-001,8.729037642478943E-002,5.142190679907799E-002,-7.318167090415955E-001,6.447752714157105E-001,
1.275666666666667E+009,9.639966487884522E-002,3.292117267847061E-002,-7.194109559059143E-001,6.525515317916870E-001,9.639966487884522E-002,3.292117267847061E-002,-7.194109559059143E-001,6.525515317916870E-001,
1.284033333333334E+009,9.839654713869095E-002,1.152901258319616E-002,-7.032384872436523E-001,6.944261193275452E-001,9.839654713869095E-002,1.152901258319616E-002,-7.032384872436523E-001,6.944261193275452E-001,
1.292400000000000E+009,8.787764608860016E-002,-7.226870395243168E-003,-6.913778781890869E-001,6.980824470520020E-001,8.787764608860016E-002,-7.226870395243168E-003,-6.913778781890869E-001,6.980824470520020E-001,
1.300766666666667E+009,6.822976469993591E-002,-1.561160199344158E-002,-6.689497232437134E-001,7.220713496208191E-001,6.822976469993591E-002,-1.561160199344158E-002,-6.689497232437134E-001,7.220713496208191E-001,
1.309133333333334E+009,4.772548377513886E-002,-1.393444463610649E-002,-6.443995833396912E-001,7.365042567253113E-001,4.772548377513886E-002,-1.393444463610649E-002,-6.443995833396912E-001,7.365042567253113E-001,
1.317500000000000E+009,3.305726125836372E-002,-1.692989491857588E-003,-6.317828297615051E-001,7.669454216957092E-001,3.305726125836372E-002,-1.692989491857588E-003,-6.317828297615051E-001,7.669454216957092E-001,
1.325866666666667E+009,2.830347232520580E-002,1.546307560056448E-002,-6.116899251937866E-001,7.818195223808289E-001,2.830347232520580E-002,1.546307560056448E-002,-6.116899251937866E-001,7.818195223808289E-001,
1.334233333333334E+009,3.644481301307678E-002,3.309554979205132E-002,-5.933998823165894E-001,7.876508831977844E-001,3.644481301307678E-002,3.309554979205132E-002,-5.933998823165894E-001,7.876508831977844E-001,
1.342600000000000E+009,5.205605924129486E-002,4.178689047694206E-002,-5.757013559341431E-001,8.048150539398193E-001,5.205605924129486E-002,4.178689047694206E-002,-5.757013559341431E-001,8.048150539398193E-001,
1.350966666666667E+009,7.222256064414978E-002,3.848562017083168E-002,-5.492600798606873E-001,8.171181082725525E-001,7.222256064414978E-002,3.848562017083168E-002,-5.492600798606873E-001,8.171181082725525E-001,
1.359333333333334E+009,8.716949075460434E-002,2.436713501811028E-002,-5.363563299179077E-001,8.162866234779358E-001,8.716949075460434E-002,2.436713501811028E-002,-5.363563299179077E-001,8.162866234779358E-001,
1.367700000000000E+009,9.298270195722580E-002,4.073854535818100E-003,-5.025961995124817E-001,8.350256681442261E-001,9.298270195722580E-002,4.073854535818100E-003,-5.025961995124817E-001,8.350256681442261E-001,
1.376066666666667E+009,8.906728774309158E-002,-1.840835623443127E-002,-4.873768687248230E-001,8.440665602684021E-001,8.906728774309158E-002,-1.840835623443127E-002,-4.873768687248230E-001,8.440665602684021E-001,
1.384433333333334E+009,7.202709466218948E-002,-3.374826908111572E-002,-4.725588560104370E-001,8.748999238014221E-001,7.202709466218948E-002,-3.374826908111572E-002,-4.725588560104370E-001,8.748999238014221E-001,
1.392800000000000E+009,5.133022367954254E-002,-3.592732176184654E-002,-4.515967071056366E-001,8.833249807357788E-001,5.133022367954254E-002,-3.592732176184654E-002,-4.515967071056366E-001,8.833249807357788E-001,
1.401166666666667E+009,3.086522966623306E-002,-2.819467335939407E-002,-4.243573546409607E-001,8.901046514511108E-001,3.086522966623306E-002,-2.819467335939407E-002,-4.243573546409607E-001,8.901046514511108E-001,
1.409533333333334E+009,1.746183261275291E-002,-1.039579417556524E-002,-3.951761126518250E-001,9.045170545578003E-001,1.746183261275291E-002,-1.039579417556524E-002,-3.951761126518250E-001,9.045170545578003E-001,
1.417900000000000E+009,1.834712922573090E-002,1.310329791158438E-002,-3.759508430957794E-001,9.005410671234131E-001,1.834712922573090E-002,1.310329791158438E-002,-3.759508430957794E-001,9.005410671234131E-001,
1.426266666666667E+009,2.910715900361538E-002,3.013635426759720E-002,-3.390845358371735E-001,9.269112944602966E-001,2.910715900361538E-002,3.013635426759720E-002,-3.390845358371735E-001,9.269112944602966E-001,
1.434633333333334E+009,4.957427456974983E-002,3.827102482318878E-002,-3.291758000850678E-001,9.211028814315796E-001,4.957427456974983E-002,3.827102482318878E-002,-3.291758000850678E-001,9.211028814315796E-001,
1.443000000000000E+009,7.000057399272919E-002,3.501895442605019E-002,-3.046118915081024E-001,9.288659095764160E-001,7.000057399272919E-002,3.501895442605019E-002,-3.046118915081024E-001,9.288659095764160E-001,
1.451366666666667E+009,8.586366474628449E-002,1.885421201586723E-002,-2.786280512809753E-001,9.291656613349915E-001,8.586366474628449E-002,1.885421201586723E-002,-2.786280512809753E-001,9.291656613349915E-001,
1.459733333333334E+009,9.222136437892914E-002,-2.012511948123574E-003,-2.526360154151917E-001,9.554979801177979E-001,9.222136437892914E-002,-2.012511948123574E-003,-2.526360154151917E-001,9.554979801177979E-001,
