% Version 1.00
%
%freq[Hz],re:Trc1_S11,im:Trc1_S11,re:Trc2_S21,im:Trc2_S21,re:Trc3_S11,im:Trc3_S11,re:Trc4_S21,im:Trc4_S21,
6.900000000000000E+008,-4.102825373411179E-002,2.974955737590790E-002,-4.951924681663513E-001,-8.577662706375122E-001,-4.102825373411179E-002,2.974955737590790E-002,-4.951924681663513E-001,-8.577662706375122E-001,
6.983666666666666E+008,-3.323166072368622E-002,2.967044897377491E-002,-5.177156329154968E-001,-8.458267450332642E-001,-3.323166072368622E-002,2.967044897377491E-002,-5.177156329154968E-001,-8.458267450332642E-001,
7.067333333333334E+008,-2.731514535844326E-002,2.471334673464298E-002,-5.427397489547730E-001,-8.207330107688904E-001,-2.731514535844326E-002,2.471334673464298E-002,-5.427397489547730E-001,-8.207330107688904E-001,
7.151000000000000E+008,-2.649610489606857E-002,1.675533875823021E-002,-5.784910917282105E-001,-8.174177408218384E-001,-2.649610489606857E-002,1.675533875823021E-002,-5.784910917282105E-001,-8.174177408218384E-001,
7.234666666666666E+008,-2.763298153877258E-002,1.100804284214973E-002,-5.886760950088501E-001,-8.040935993194580E-001,-2.763298153877258E-002,1.100804284214973E-002,-5.886760950088501E-001,-8.040935993194580E-001,
7.318333333333334E+008,-3.464942052960396E-002,8.627451956272125E-003,-6.069872379302979E-001,-7.867558002471924E-001,-3.464942052960396E-002,8.627451956272125E-003,-6.069872379302979E-001,-7.867558002471924E-001,
7.402000000000000E+008,-4.087405279278755E-002,1.035465858876705E-002,-6.191362738609314E-001,-7.616918087005615E-001,-4.087405279278755E-002,1.035465858876705E-002,-6.191362738609314E-001,-7.616918087005615E-001,
7.485666666666666E+008,-4.620633274316788E-002,1.724481396377087E-002,-6.493296623229981E-001,-7.480927705764771E-001,-4.620633274316788E-002,1.724481396377087E-002,-6.493296623229981E-001,-7.480927705764771E-001,
7.569333333333334E+008,-5.066097527742386E-002,2.699592895805836E-002,-6.688455343246460E-001,-7.372666001319885E-001,-5.066097527742386E-002,2.699592895805836E-002,-6.688455343246460E-001,-7.372666001319885E-001,
7.653000000000000E+008,-4.601092264056206E-002,3.579887002706528E-002,-6.727030873298645E-001,-7.159222960472107E-001,-4.601092264056206E-002,3.579887002706528E-002,-6.727030873298645E-001,-7.159222960472107E-001,
7.736666666666666E+008,-4.091051965951920E-002,4.236399382352829E-002,-6.909260749816895E-001,-7.117158174514771E-001,-4.091051965951920E-002,4.236399382352829E-002,-6.909260749816895E-001,-7.117158174514771E-001,
7.820333333333334E+008,-3.295049071311951E-002,4.626229032874107E-002,-7.235730886459351E-001,-6.861436367034912E-001,-3.295049071311951E-002,4.626229032874107E-002,-7.235730886459351E-001,-6.861436367034912E-001,
7.904000000000000E+008,-2.383613586425781E-002,4.503149539232254E-002,-7.324937582015991E-001,-6.680716872215271E-001,-2.383613586425781E-002,4.503149539232254E-002,-7.324937582015991E-001,-6.680716872215271E-001,
7.987666666666666E+008,-1.960617862641811E-002,3.893947973847389E-002,-7.399457097053528E-001,-6.504199504852295E-001,-1.960617862641811E-002,3.893947973847389E-002,-7.399457097053528E-001,-6.504199504852295E-001,
8.071333333333334E+008,-1.774066500365734E-002,3.189881891012192E-002,-7.612022757530212E-001,-6.190874576568604E-001,-1.774066500365734E-002,3.189881891012192E-002,-7.612022757530212E-001,-6.190874576568604E-001,
8.155000000000000E+008,-2.064548060297966E-002,2.461376972496510E-002,-7.906343936920166E-001,-6.084322333335877E-001,-2.064548060297966E-002,2.461376972496510E-002,-7.906343936920166E-001,-6.084322333335877E-001,
8.238666666666666E+008,-2.631808444857597E-002,2.196393348276615E-002,-7.958911657333374E-001,-5.848842263221741E-001,-2.631808444857597E-002,2.196393348276615E-002,-7.958911657333374E-001,-5.848842263221741E-001,
8.322333333333334E+008,-3.184720873832703E-002,2.299623750150204E-002,-8.066018223762512E-001,-5.660297870635986E-001,-3.184720873832703E-002,2.299623750150204E-002,-8.066018223762512E-001,-5.660297870635986E-001,
8.406000000000000E+008,-3.656868264079094E-002,2.601751685142517E-002,-8.190664649009705E-001,-5.451738238334656E-001,-3.656868264079094E-002,2.601751685142517E-002,-8.190664649009705E-001,-5.451738238334656E-001,
8.489666666666668E+008,-3.862345591187477E-002,3.732302412390709E-002,-8.317874073982239E-001,-5.174636840820313E-001,-3.862345591187477E-002,3.732302412390709E-002,-8.317874073982239E-001,-5.174636840820313E-001,
8.573333333333334E+008,-3.708416596055031E-002,4.536169394850731E-002,-8.361691236495972E-001,-4.843236804008484E-001,-3.708416596055031E-002,4.536169394850731E-002,-8.361691236495972E-001,-4.843236804008484E-001,
8.657000000000000E+008,-3.246553242206574E-002,5.365969613194466E-002,-8.615326285362244E-001,-4.910104274749756E-001,-3.246553242206574E-002,5.365969613194466E-002,-8.615326285362244E-001,-4.910104274749756E-001,
8.740666666666668E+008,-2.415023371577263E-002,5.898815393447876E-002,-8.677930831909180E-001,-4.664995968341827E-001,-2.415023371577263E-002,5.898815393447876E-002,-8.677930831909180E-001,-4.664995968341827E-001,
8.824333333333334E+008,-1.680627278983593E-002,6.052258983254433E-002,-8.862047195434570E-001,-4.420699179172516E-001,-1.680627278983593E-002,6.052258983254433E-002,-8.862047195434570E-001,-4.420699179172516E-001,
8.908000000000000E+008,-9.514241479337215E-003,5.659706518054009E-002,-9.000992178916931E-001,-4.257937073707581E-001,-9.514241479337215E-003,5.659706518054009E-002,-9.000992178916931E-001,-4.257937073707581E-001,
8.991666666666668E+008,-4.370177164673805E-003,5.052637681365013E-002,-9.007101058959961E-001,-3.965770900249481E-001,-4.370177164673805E-003,5.052637681365013E-002,-9.007101058959961E-001,-3.965770900249481E-001,
9.075333333333334E+008,-4.458437208086252E-003,4.237036779522896E-002,-9.156586527824402E-001,-3.727550804615021E-001,-4.458437208086252E-003,4.237036779522896E-002,-9.156586527824402E-001,-3.727550804615021E-001,
9.159000000000000E+008,-6.666968576610088E-003,3.587005287408829E-002,-9.355000257492065E-001,-3.476934432983398E-001,-6.666968576610088E-003,3.587005287408829E-002,-9.355000257492065E-001,-3.476934432983398E-001,
9.242666666666668E+008,-1.332843676209450E-002,3.544533625245094E-002,-9.292038679122925E-001,-3.251168131828308E-001,-1.332843676209450E-002,3.544533625245094E-002,-9.292038679122925E-001,-3.251168131828308E-001,
9.326333333333334E+008,-1.812569424510002E-002,3.705986216664314E-002,-9.436988830566406E-001,-3.105016946792603E-001,-1.812569424510002E-002,3.705986216664314E-002,-9.436988830566406E-001,-3.105016946792603E-001,
9.410000000000000E+008,-2.217686176300049E-002,4.101647809147835E-002,-9.551774263381958E-001,-2.763156294822693E-001,-2.217686176300049E-002,4.101647809147835E-002,-9.551774263381958E-001,-2.763156294822693E-001,
9.493666666666668E+008,-2.397520467638969E-002,5.070056021213532E-002,-9.601235985755920E-001,-2.453710734844208E-001,-2.397520467638969E-002,5.070056021213532E-002,-9.601235985755920E-001,-2.453710734844208E-001,
9.577333333333334E+008,-2.099485509097576E-002,6.111651659011841E-002,-9.667395949363709E-001,-2.323987931013107E-001,-2.099485509097576E-002,6.111651659011841E-002,-9.667395949363709E-001,-2.323987931013107E-001,
9.661000000000000E+008,-1.300879847258329E-002,6.818754225969315E-002,-9.671418070793152E-001,-1.924635171890259E-001,-1.300879847258329E-002,6.818754225969315E-002,-9.671418070793152E-001,-1.924635171890259E-001,
9.744666666666668E+008,-2.633721334859729E-003,6.929491460323334E-002,-9.670514464378357E-001,-1.802644878625870E-001,-2.633721334859729E-003,6.929491460323334E-002,-9.670514464378357E-001,-1.802644878625870E-001,
9.828333333333334E+008,5.489328410476446E-003,7.062981277704239E-002,-9.811401367187500E-001,-1.597882509231567E-001,5.489328410476446E-003,7.062981277704239E-002,-9.811401367187500E-001,-1.597882509231567E-001,
9.912000000000000E+008,1.526147779077292E-002,6.441870331764221E-002,-9.789180755615234E-001,-1.387944817543030E-001,1.526147779077292E-002,6.441870331764221E-002,-9.789180755615234E-001,-1.387944817543030E-001,
9.995666666666668E+008,1.886277087032795E-002,5.634444952011108E-002,-9.920431375503540E-001,-1.028240397572517E-001,1.886277087032795E-002,5.634444952011108E-002,-9.920431375503540E-001,-1.028240397572517E-001,
1.007933333333333E+009,2.225951105356216E-002,4.645009711384773E-002,-1.008367538452148E+000,-8.522427082061768E-002,2.225951105356216E-002,4.645009711384773E-002,-1.008367538452148E+000,-8.522427082061768E-002,
1.016300000000000E+009,1.601268164813519E-002,3.963502123951912E-002,-9.945585131645203E-001,-6.055263057351112E-002,1.601268164813519E-002,3.963502123951912E-002,-9.945585131645203E-001,-6.055263057351112E-002,
1.024666666666667E+009,8.260855451226234E-003,3.477261215448380E-002,-9.904926419258118E-001,-3.297304362058640E-002,8.260855451226234E-003,3.477261215448380E-002,-9.904926419258118E-001,-3.297304362058640E-002,
1.033033333333333E+009,3.432002617046237E-003,3.868332877755165E-002,-9.965595006942749E-001,-8.398167788982391E-003,3.432002617046237E-003,3.868332877755165E-002,-9.965595006942749E-001,-8.398167788982391E-003,
1.041400000000000E+009,-3.221280872821808E-003,4.382292926311493E-002,-9.990556836128235E-001,1.606822013854981E-002,-3.221280872821808E-003,4.382292926311493E-002,-9.990556836128235E-001,1.606822013854981E-002,
1.049766666666667E+009,-4.832694248761982E-004,5.356786772608757E-002,-9.861294031143189E-001,4.911227151751518E-002,-4.832694248761982E-004,5.356786772608757E-002,-9.861294031143189E-001,4.911227151751518E-002,
1.058133333333333E+009,3.323182696476579E-003,6.326555460691452E-002,-9.863935708999634E-001,7.128550857305527E-002,3.323182696476579E-003,6.326555460691452E-002,-9.863935708999634E-001,7.128550857305527E-002,
1.066500000000000E+009,1.434266474097967E-002,6.869098544120789E-002,-1.002488732337952E+000,1.053915396332741E-001,1.434266474097967E-002,6.869098544120789E-002,-1.002488732337952E+000,1.053915396332741E-001,
1.074866666666667E+009,2.750027179718018E-002,6.830360740423203E-002,-9.965490102767944E-001,1.282726973295212E-001,2.750027179718018E-002,6.830360740423203E-002,-9.965490102767944E-001,1.282726973295212E-001,
1.083233333333334E+009,3.575388714671135E-002,6.125734001398087E-002,-9.803124666213989E-001,1.466906070709229E-001,3.575388714671135E-002,6.125734001398087E-002,-9.803124666213989E-001,1.466906070709229E-001,
1.091600000000000E+009,4.209229350090027E-002,5.076989531517029E-002,-9.628210663795471E-001,1.672266870737076E-001,4.209229350090027E-002,5.076989531517029E-002,-9.628210663795471E-001,1.672266870737076E-001,
1.099966666666667E+009,4.111496359109879E-002,3.699173778295517E-002,-9.573219418525696E-001,2.074902504682541E-001,4.111496359109879E-002,3.699173778295517E-002,-9.573219418525696E-001,2.074902504682541E-001,
1.108333333333334E+009,3.242426365613937E-002,2.823695726692677E-002,-9.586379528045654E-001,2.150252461433411E-001,3.242426365613937E-002,2.823695726692677E-002,-9.586379528045654E-001,2.150252461433411E-001,
1.116700000000000E+009,2.157032862305641E-002,2.362521924078465E-002,-9.521997570991516E-001,2.477910816669464E-001,2.157032862305641E-002,2.362521924078465E-002,-9.521997570991516E-001,2.477910816669464E-001,
1.125066666666667E+009,1.010359171777964E-002,2.701848372817040E-002,-9.525749683380127E-001,2.650138735771179E-001,1.010359171777964E-002,2.701848372817040E-002,-9.525749683380127E-001,2.650138735771179E-001,
1.133433333333334E+009,1.750520197674632E-003,3.633509948849678E-002,-9.498868584632874E-001,3.091813921928406E-001,1.750520197674632E-003,3.633509948849678E-002,-9.498868584632874E-001,3.091813921928406E-001,
1.141800000000000E+009,3.430990036576986E-004,4.919689893722534E-002,-9.276608824729919E-001,3.227446377277374E-001,3.430990036576986E-004,4.919689893722534E-002,-9.276608824729919E-001,3.227446377277374E-001,
1.150166666666667E+009,8.966934867203236E-003,6.428974121809006E-002,-9.200315475463867E-001,3.257929980754852E-001,8.966934867203236E-003,6.428974121809006E-002,-9.200315475463867E-001,3.257929980754852E-001,
1.158533333333334E+009,2.483365684747696E-002,7.252581417560577E-002,-9.113954305648804E-001,3.653841912746429E-001,2.483365684747696E-002,7.252581417560577E-002,-9.113954305648804E-001,3.653841912746429E-001,
1.166900000000000E+009,4.374849423766136E-002,7.358019053936005E-002,-8.972235321998596E-001,3.867549002170563E-001,4.374849423766136E-002,7.358019053936005E-002,-8.972235321998596E-001,3.867549002170563E-001,
1.175266666666667E+009,5.984983965754509E-002,6.421232968568802E-002,-8.916363120079041E-001,4.168140292167664E-001,5.984983965754509E-002,6.421232968568802E-002,-8.916363120079041E-001,4.168140292167664E-001,
1.183633333333334E+009,7.159160077571869E-002,5.008904263377190E-002,-8.879457116127014E-001,4.278983473777771E-001,7.159160077571869E-002,5.008904263377190E-002,-8.879457116127014E-001,4.278983473777771E-001,
1.192000000000000E+009,7.168016582727432E-002,3.157680481672287E-002,-8.765009045600891E-001,4.512504041194916E-001,7.168016582727432E-002,3.157680481672287E-002,-8.765009045600891E-001,4.512504041194916E-001,
1.200366666666667E+009,6.214781850576401E-002,1.479579601436853E-002,-8.636075258255005E-001,4.711031317710877E-001,6.214781850576401E-002,1.479579601436853E-002,-8.636075258255005E-001,4.711031317710877E-001,
1.208733333333334E+009,4.641599208116531E-002,5.232551135122776E-003,-8.591890335083008E-001,5.145032405853272E-001,4.641599208116531E-002,5.232551135122776E-003,-8.591890335083008E-001,5.145032405853272E-001,
1.217100000000000E+009,3.012667410075665E-002,5.602766294032335E-003,-8.526512980461121E-001,5.257488489151001E-001,3.012667410075665E-002,5.602766294032335E-003,-8.526512980461121E-001,5.257488489151001E-001,
1.225466666666667E+009,1.675873249769211E-002,1.526315510272980E-002,-8.216479420661926E-001,5.491080284118652E-001,1.675873249769211E-002,1.526315510272980E-002,-8.216479420661926E-001,5.491080284118652E-001,
1.233833333333334E+009,1.171382609754801E-002,3.144074603915215E-002,-8.167215585708618E-001,5.592973828315735E-001,1.171382609754801E-002,3.144074603915215E-002,-8.167215585708618E-001,5.592973828315735E-001,
1.242200000000000E+009,1.982180215418339E-002,4.611216112971306E-002,-7.916445732116699E-001,5.944679379463196E-001,1.982180215418339E-002,4.611216112971306E-002,-7.916445732116699E-001,5.944679379463196E-001,
1.250566666666667E+009,3.296875581145287E-002,5.728718638420105E-002,-7.704911231994629E-001,5.968595743179321E-001,3.296875581145287E-002,5.728718638420105E-002,-7.704911231994629E-001,5.968595743179321E-001,
1.258933333333334E+009,5.384211242198944E-002,5.832598730921745E-002,-7.645636200904846E-001,6.224320530891419E-001,5.384211242198944E-002,5.832598730921745E-002,-7.645636200904846E-001,6.224320530891419E-001,
1.267300000000000E+009,7.418220490217209E-002,4.871517792344093E-002,-7.475051879882813E-001,6.378684043884277E-001,7.418220490217209E-002,4.871517792344093E-002,-7.475051879882813E-001,6.378684043884277E-001,
1.275666666666667E+009,8.386468142271042E-002,3.124604001641274E-002,-7.340814471244812E-001,6.461489796638489E-001,8.386468142271042E-002,3.124604001641274E-002,-7.340814471244812E-001,6.461489796638489E-001,
1.284033333333334E+009,8.601983636617661E-002,1.070429757237434E-002,-7.188189625740051E-001,6.869142651557922E-001,8.601983636617661E-002,1.070429757237434E-002,-7.188189625740051E-001,6.869142651557922E-001,
1.292400000000000E+009,7.535234093666077E-002,-8.588173426687717E-003,-7.019175887107849E-001,6.925166845321655E-001,7.535234093666077E-002,-8.588173426687717E-003,-7.019175887107849E-001,6.925166845321655E-001,
1.300766666666667E+009,5.556027218699455E-002,-1.715777814388275E-002,-6.834039092063904E-001,7.161890268325806E-001,5.556027218699455E-002,-1.715777814388275E-002,-6.834039092063904E-001,7.161890268325806E-001,
1.309133333333334E+009,3.441039100289345E-002,-1.669268123805523E-002,-6.589120626449585E-001,7.280943393707275E-001,3.441039100289345E-002,-1.669268123805523E-002,-6.589120626449585E-001,7.280943393707275E-001,
1.317500000000000E+009,1.867215894162655E-002,-5.396148655563593E-003,-6.461719274520874E-001,7.610291838645935E-001,1.867215894162655E-002,-5.396148655563593E-003,-6.461719274520874E-001,7.610291838645935E-001,
1.325866666666667E+009,1.281471643596888E-002,1.120602618902922E-002,-6.279460191726685E-001,7.765882015228272E-001,1.281471643596888E-002,1.120602618902922E-002,-6.279460191726685E-001,7.765882015228272E-001,
1.334233333333334E+009,2.000190690159798E-002,2.927417866885662E-002,-6.099722981452942E-001,7.815058827400208E-001,2.000190690159798E-002,2.927417866885662E-002,-6.099722981452942E-001,7.815058827400208E-001,
1.342600000000000E+009,3.544229641556740E-002,3.875993192195892E-002,-5.932423472404480E-001,8.008830547332764E-001,3.544229641556740E-002,3.875993192195892E-002,-5.932423472404480E-001,8.008830547332764E-001,
1.350966666666667E+009,5.607477575540543E-002,3.692296147346497E-002,-5.674307942390442E-001,8.128616213798523E-001,5.607477575540543E-002,3.692296147346497E-002,-5.674307942390442E-001,8.128616213798523E-001,
1.359333333333334E+009,7.221224904060364E-002,2.389429137110710E-002,-5.542070865631104E-001,8.126350641250610E-001,7.221224904060364E-002,2.389429137110710E-002,-5.542070865631104E-001,8.126350641250610E-001,
1.367700000000000E+009,7.950199395418167E-002,5.064905155450106E-003,-5.206615328788757E-001,8.317816257476807E-001,7.950199395418167E-002,5.064905155450106E-003,-5.206615328788757E-001,8.317816257476807E-001,
1.376066666666667E+009,7.640071958303452E-002,-1.675153337419033E-002,-5.042832493782044E-001,8.413673639297485E-001,7.640071958303452E-002,-1.675153337419033E-002,-5.042832493782044E-001,8.413673639297485E-001,
1.384433333333334E+009,5.955474823713303E-002,-3.218298405408859E-002,-4.901336133480072E-001,8.731371164321899E-001,5.955474823713303E-002,-3.218298405408859E-002,-4.901336133480072E-001,8.731371164321899E-001,
1.392800000000000E+009,3.823614493012428E-002,-3.512044996023178E-002,-4.685074388980866E-001,8.808890581130981E-001,3.823614493012428E-002,-3.512044996023178E-002,-4.685074388980866E-001,8.808890581130981E-001,
1.401166666666667E+009,1.632162183523178E-002,-2.754877321422100E-002,-4.422101080417633E-001,8.878989219665527E-001,1.632162183523178E-002,-2.754877321422100E-002,-4.422101080417633E-001,8.878989219665527E-001,
1.409533333333334E+009,1.599931507371366E-003,-9.895694442093372E-003,-4.125720858573914E-001,9.033257961273193E-001,1.599931507371366E-003,-9.895694442093372E-003,-4.125720858573914E-001,9.033257961273193E-001,
1.417900000000000E+009,5.079578841105104E-004,1.344777550548315E-002,-3.928339183330536E-001,8.976905345916748E-001,5.079578841105104E-004,1.344777550548315E-002,-3.928339183330536E-001,8.976905345916748E-001,
1.426266666666667E+009,1.026353798806667E-002,3.080316632986069E-002,-3.570404648780823E-001,9.274347424507141E-001,1.026353798806667E-002,3.080316632986069E-002,-3.570404648780823E-001,9.274347424507141E-001,
1.434633333333334E+009,3.029037639498711E-002,3.965457528829575E-002,-3.478999733924866E-001,9.214503169059753E-001,3.029037639498711E-002,3.965457528829575E-002,-3.478999733924866E-001,9.214503169059753E-001,
1.443000000000000E+009,5.167100578546524E-002,3.760210424661636E-002,-3.245293796062470E-001,9.297641515731812E-001,5.167100578546524E-002,3.760210424661636E-002,-3.245293796062470E-001,9.297641515731812E-001,
1.451366666666667E+009,6.893268972635269E-002,2.238585986196995E-002,-2.968112230300903E-001,9.320456981658936E-001,6.893268972635269E-002,2.238585986196995E-002,-2.968112230300903E-001,9.320456981658936E-001,
1.459733333333334E+009,7.696042209863663E-002,2.613008953630924E-003,-2.709585130214691E-001,9.591918587684631E-001,7.696042209863663E-002,2.613008953630924E-003,-2.709585130214691E-001,9.591918587684631E-001,
