% Version 1.00
%
%freq[Hz],re:Trc1_S11,im:Trc1_S11,re:Trc2_S21,im:Trc2_S21,re:Trc3_S11,im:Trc3_S11,re:Trc4_S21,im:Trc4_S21,
6.900000000000000E+008,-5.146590992808342E-002,3.802213817834854E-002,-5.033530592918396E-001,-8.470975160598755E-001,-5.146590992808342E-002,3.802213817834854E-002,-5.033530592918396E-001,-8.470975160598755E-001,
6.983666666666666E+008,-4.354660585522652E-002,3.839016333222389E-002,-5.282418727874756E-001,-8.358696699142456E-001,-4.354660585522652E-002,3.839016333222389E-002,-5.282418727874756E-001,-8.358696699142456E-001,
7.067333333333334E+008,-3.743236884474754E-002,3.396606445312500E-002,-5.511517524719238E-001,-8.101658821105957E-001,-3.743236884474754E-002,3.396606445312500E-002,-5.511517524719238E-001,-8.101658821105957E-001,
7.151000000000000E+008,-3.671680018305779E-002,2.663923241198063E-002,-5.860874652862549E-001,-8.077157139778137E-001,-3.671680018305779E-002,2.663923241198063E-002,-5.860874652862549E-001,-8.077157139778137E-001,
7.234666666666666E+008,-3.816210851073265E-002,2.177293971180916E-002,-5.988642573356628E-001,-7.929325699806213E-001,-3.816210851073265E-002,2.177293971180916E-002,-5.988642573356628E-001,-7.929325699806213E-001,
7.318333333333334E+008,-4.509408771991730E-002,1.998688094317913E-002,-6.165392398834229E-001,-7.753222584724426E-001,-4.509408771991730E-002,1.998688094317913E-002,-6.165392398834229E-001,-7.753222584724426E-001,
7.402000000000000E+008,-5.083063244819641E-002,2.234038524329662E-002,-6.278103590011597E-001,-7.500756382942200E-001,-5.083063244819641E-002,2.234038524329662E-002,-6.278103590011597E-001,-7.500756382942200E-001,
7.485666666666666E+008,-5.614132434129715E-002,2.971177361905575E-002,-6.571691036224365E-001,-7.371042966842651E-001,-5.614132434129715E-002,2.971177361905575E-002,-6.571691036224365E-001,-7.371042966842651E-001,
7.569333333333334E+008,-6.005676835775375E-002,3.972926735877991E-002,-6.753502488136292E-001,-7.233092784881592E-001,-6.005676835775375E-002,3.972926735877991E-002,-6.753502488136292E-001,-7.233092784881592E-001,
7.653000000000000E+008,-5.508572608232498E-002,4.865133389830589E-002,-6.827029585838318E-001,-7.045657038688660E-001,-5.508572608232498E-002,4.865133389830589E-002,-6.827029585838318E-001,-7.045657038688660E-001,
7.736666666666666E+008,-4.925125837326050E-002,5.527137964963913E-002,-6.948930025100708E-001,-7.009820342063904E-001,-4.925125837326050E-002,5.527137964963913E-002,-6.948930025100708E-001,-7.009820342063904E-001,
7.820333333333334E+008,-4.116990789771080E-002,5.926536768674851E-002,-7.290122509002686E-001,-6.728688478469849E-001,-4.116990789771080E-002,5.926536768674851E-002,-7.290122509002686E-001,-6.728688478469849E-001,
7.904000000000000E+008,-3.146461024880409E-002,5.809691175818443E-002,-7.378054857254028E-001,-6.540299654006958E-001,-3.146461024880409E-002,5.809691175818443E-002,-7.378054857254028E-001,-6.540299654006958E-001,
7.987666666666666E+008,-2.721023373305798E-002,5.286495760083199E-002,-7.429123520851135E-001,-6.375462412834168E-001,-2.721023373305798E-002,5.286495760083199E-002,-7.429123520851135E-001,-6.375462412834168E-001,
8.071333333333334E+008,-2.511194720864296E-002,4.646676406264305E-002,-7.694084644317627E-001,-6.055027842521668E-001,-2.511194720864296E-002,4.646676406264305E-002,-7.694084644317627E-001,-6.055027842521668E-001,
8.155000000000000E+008,-2.742223255336285E-002,3.955626860260963E-002,-7.961190342903137E-001,-5.947316288948059E-001,-2.742223255336285E-002,3.955626860260963E-002,-7.961190342903137E-001,-5.947316288948059E-001,
8.238666666666666E+008,-3.348636254668236E-002,3.778558224439621E-002,-8.024966120719910E-001,-5.715201497077942E-001,-3.348636254668236E-002,3.778558224439621E-002,-8.024966120719910E-001,-5.715201497077942E-001,
8.322333333333334E+008,-3.833731263875961E-002,3.959961980581284E-002,-8.117926120758057E-001,-5.536136627197266E-001,-3.833731263875961E-002,3.959961980581284E-002,-8.117926120758057E-001,-5.536136627197266E-001,
8.406000000000000E+008,-4.237034544348717E-002,4.335138201713562E-002,-8.234476447105408E-001,-5.304808616638184E-001,-4.237034544348717E-002,4.335138201713562E-002,-8.234476447105408E-001,-5.304808616638184E-001,
8.489666666666668E+008,-4.355612769722939E-002,5.469529703259468E-002,-8.354229331016541E-001,-5.021535158157349E-001,-4.355612769722939E-002,5.469529703259468E-002,-8.354229331016541E-001,-5.021535158157349E-001,
8.573333333333334E+008,-4.155626893043518E-002,6.283124536275864E-002,-8.374511003494263E-001,-4.713890552520752E-001,-4.155626893043518E-002,6.283124536275864E-002,-8.374511003494263E-001,-4.713890552520752E-001,
8.657000000000000E+008,-3.662235289812088E-002,7.080070674419403E-002,-8.656269907951355E-001,-4.752638936042786E-001,-3.662235289812088E-002,7.080070674419403E-002,-8.656269907951355E-001,-4.752638936042786E-001,
8.740666666666668E+008,-2.783927693963051E-002,7.620223611593247E-002,-8.709874153137207E-001,-4.512152075767517E-001,-2.783927693963051E-002,7.620223611593247E-002,-8.709874153137207E-001,-4.512152075767517E-001,
8.824333333333334E+008,-2.002454735338688E-002,7.774157077074051E-002,-8.892946839332581E-001,-4.264806509017944E-001,-2.002454735338688E-002,7.774157077074051E-002,-8.892946839332581E-001,-4.264806509017944E-001,
8.908000000000000E+008,-1.216111425310373E-002,7.423914968967438E-002,-9.029196500778198E-001,-4.091609120368958E-001,-1.216111425310373E-002,7.423914968967438E-002,-9.029196500778198E-001,-4.091609120368958E-001,
8.991666666666668E+008,-6.580968387424946E-003,6.816769391298294E-002,-9.032073020935059E-001,-3.818884193897247E-001,-6.580968387424946E-003,6.816769391298294E-002,-9.032073020935059E-001,-3.818884193897247E-001,
9.075333333333334E+008,-5.779212806373835E-003,6.047144159674645E-002,-9.173600077629089E-001,-3.552564680576325E-001,-5.779212806373835E-003,6.047144159674645E-002,-9.173600077629089E-001,-3.552564680576325E-001,
9.159000000000000E+008,-8.152387104928494E-003,5.434462428092957E-002,-9.374317526817322E-001,-3.312464654445648E-001,-8.152387104928494E-003,5.434462428092957E-002,-9.374317526817322E-001,-3.312464654445648E-001,
9.242666666666668E+008,-1.412248890846968E-002,5.437356606125832E-002,-9.290551543235779E-001,-3.095048666000366E-001,-1.412248890846968E-002,5.437356606125832E-002,-9.290551543235779E-001,-3.095048666000366E-001,
9.326333333333334E+008,-1.846198365092278E-002,5.649935826659203E-002,-9.452385902404785E-001,-2.957266569137573E-001,-1.846198365092278E-002,5.649935826659203E-002,-9.452385902404785E-001,-2.957266569137573E-001,
9.410000000000000E+008,-2.179582230746746E-002,6.093415990471840E-002,-9.543546438217163E-001,-2.588652968406677E-001,-2.179582230746746E-002,6.093415990471840E-002,-9.543546438217163E-001,-2.588652968406677E-001,
9.493666666666668E+008,-2.290456928312779E-002,7.065886259078980E-002,-9.593350291252136E-001,-2.286706715822220E-001,-2.290456928312779E-002,7.065886259078980E-002,-9.593350291252136E-001,-2.286706715822220E-001,
9.577333333333334E+008,-1.901270262897015E-002,8.106695860624313E-002,-9.649183750152588E-001,-2.149854302406311E-001,-1.901270262897015E-002,8.106695860624313E-002,-9.649183750152588E-001,-2.149854302406311E-001,
9.661000000000000E+008,-1.042017433792353E-002,8.818111568689346E-002,-9.656983613967896E-001,-1.733560115098953E-001,-1.042017433792353E-002,8.818111568689346E-002,-9.656983613967896E-001,-1.733560115098953E-001,
9.744666666666668E+008,1.707999326754361E-004,8.871632814407349E-002,-9.639760255813599E-001,-1.631997227668762E-001,1.707999326754361E-004,8.871632814407349E-002,-9.639760255813599E-001,-1.631997227668762E-001,
9.828333333333334E+008,9.193604812026024E-003,9.007142484188080E-002,-9.795302152633667E-001,-1.434407234191895E-001,9.193604812026024E-003,9.007142484188080E-002,-9.795302152633667E-001,-1.434407234191895E-001,
9.912000000000000E+008,1.969883218407631E-002,8.345667272806168E-002,-9.766083955764771E-001,-1.211736351251602E-001,1.969883218407631E-002,8.345667272806168E-002,-9.766083955764771E-001,-1.211736351251602E-001,
9.995666666666668E+008,2.344122715294361E-002,7.549527287483215E-002,-9.886456131935120E-001,-8.400188386440277E-002,2.344122715294361E-002,7.549527287483215E-002,-9.886456131935120E-001,-8.400188386440277E-002,
1.007933333333333E+009,2.735689096152782E-002,6.541754305362701E-002,-1.001870512962341E+000,-6.710370630025864E-002,2.735689096152782E-002,6.541754305362701E-002,-1.001870512962341E+000,-6.710370630025864E-002,
1.016300000000000E+009,2.180828526616097E-002,5.880789458751679E-002,-9.884614348411560E-001,-4.103766009211540E-002,2.180828526616097E-002,5.880789458751679E-002,-9.884614348411560E-001,-4.103766009211540E-002,
1.024666666666667E+009,1.476343628019095E-002,5.464225634932518E-002,-9.842079281806946E-001,-1.483290735632181E-002,1.476343628019095E-002,5.464225634932518E-002,-9.842079281806946E-001,-1.483290735632181E-002,
1.033033333333333E+009,1.056766975671053E-002,5.912075191736221E-002,-9.911344647407532E-001,1.146283093839884E-002,1.056766975671053E-002,5.912075191736221E-002,-9.911344647407532E-001,1.146283093839884E-002,
1.041400000000000E+009,4.675879608839750E-003,6.413532793521881E-002,-9.902020096778870E-001,3.277489170432091E-002,4.675879608839750E-003,6.413532793521881E-002,-9.902020096778870E-001,3.277489170432091E-002,
1.049766666666667E+009,8.467549458146095E-003,7.391519844532013E-002,-9.762703180313110E-001,6.903263181447983E-002,8.467549458146095E-003,7.391519844532013E-002,-9.762703180313110E-001,6.903263181447983E-002,
1.058133333333333E+009,1.312433928251267E-002,8.355615288019180E-002,-9.777058362960815E-001,9.048920869827271E-002,1.312433928251267E-002,8.355615288019180E-002,-9.777058362960815E-001,9.048920869827271E-002,
1.066500000000000E+009,2.453966066241264E-002,8.834719657897949E-002,-9.922674894332886E-001,1.244869828224182E-001,2.453966066241264E-002,8.834719657897949E-002,-9.922674894332886E-001,1.244869828224182E-001,
1.074866666666667E+009,3.820319473743439E-002,8.735670894384384E-002,-9.853283166885376E-001,1.450130045413971E-001,3.820319473743439E-002,8.735670894384384E-002,-9.853283166885376E-001,1.450130045413971E-001,
1.083233333333334E+009,4.696793854236603E-002,7.961155474185944E-002,-9.695514440536499E-001,1.659426689147949E-001,4.696793854236603E-002,7.961155474185944E-002,-9.695514440536499E-001,1.659426689147949E-001,
1.091600000000000E+009,5.349883437156677E-002,6.892709434032440E-002,-9.515443444252014E-001,1.853312700986862E-001,5.349883437156677E-002,6.892709434032440E-002,-9.515443444252014E-001,1.853312700986862E-001,
1.099966666666667E+009,5.278300121426582E-002,5.495383217930794E-002,-9.466252923011780E-001,2.233217656612396E-001,5.278300121426582E-002,5.495383217930794E-002,-9.466252923011780E-001,2.233217656612396E-001,
1.108333333333334E+009,4.498025402426720E-002,4.628886282444000E-002,-9.464051723480225E-001,2.317306846380234E-001,4.498025402426720E-002,4.628886282444000E-002,-9.464051723480225E-001,2.317306846380234E-001,
1.116700000000000E+009,3.497205674648285E-002,4.221941530704498E-002,-9.384657144546509E-001,2.648544013500214E-001,3.497205674648285E-002,4.221941530704498E-002,-9.384657144546509E-001,2.648544013500214E-001,
1.125066666666667E+009,2.466269023716450E-002,4.594025760889053E-002,-9.400061368942261E-001,2.818942666053772E-001,2.466269023716450E-002,4.594025760889053E-002,-9.400061368942261E-001,2.818942666053772E-001,
1.133433333333334E+009,1.756206341087818E-002,5.509002879261971E-002,-9.368595480918884E-001,3.266409933567047E-001,1.756206341087818E-002,5.509002879261971E-002,-9.368595480918884E-001,3.266409933567047E-001,
1.141800000000000E+009,1.717800833284855E-002,6.817281246185303E-002,-9.135521054267883E-001,3.407120108604431E-001,1.717800833284855E-002,6.817281246185303E-002,-9.135521054267883E-001,3.407120108604431E-001,
1.150166666666667E+009,2.686459012329578E-002,8.225860446691513E-002,-9.045163393020630E-001,3.412095606327057E-001,2.686459012329578E-002,8.225860446691513E-002,-9.045163393020630E-001,3.412095606327057E-001,
1.158533333333334E+009,4.336663708090782E-002,8.938718587160111E-002,-8.969696164131165E-001,3.815594017505646E-001,4.336663708090782E-002,8.938718587160111E-002,-8.969696164131165E-001,3.815594017505646E-001,
1.166900000000000E+009,6.285048276185989E-002,8.937311172485352E-002,-8.799847364425659E-001,4.017542302608490E-001,6.285048276185989E-002,8.937311172485352E-002,-8.799847364425659E-001,4.017542302608490E-001,
1.175266666666667E+009,7.859414070844650E-002,7.882576435804367E-002,-8.746878504753113E-001,4.312464594841003E-001,7.859414070844650E-002,7.882576435804367E-002,-8.746878504753113E-001,4.312464594841003E-001,
1.183633333333334E+009,9.037075191736221E-002,6.417100876569748E-002,-8.724163174629211E-001,4.425098299980164E-001,9.037075191736221E-002,6.417100876569748E-002,-8.724163174629211E-001,4.425098299980164E-001,
1.192000000000000E+009,9.011640399694443E-002,4.534021392464638E-002,-8.594517111778259E-001,4.649895727634430E-001,9.011640399694443E-002,4.534021392464638E-002,-8.594517111778259E-001,4.649895727634430E-001,
1.200366666666667E+009,8.065131306648254E-002,2.857029065489769E-002,-8.470416069030762E-001,4.862756431102753E-001,8.065131306648254E-002,2.857029065489769E-002,-8.470416069030762E-001,4.862756431102753E-001,
1.208733333333334E+009,6.593111902475357E-002,1.908724382519722E-002,-8.396286964416504E-001,5.279510617256165E-001,6.593111902475357E-002,1.908724382519722E-002,-8.396286964416504E-001,5.279510617256165E-001,
1.217100000000000E+009,5.025913566350937E-002,1.944707706570625E-002,-8.357040286064148E-001,5.373614430427551E-001,5.025913566350937E-002,1.944707706570625E-002,-8.357040286064148E-001,5.373614430427551E-001,
1.225466666666667E+009,3.869608044624329E-002,2.956474944949150E-002,-8.031737208366394E-001,5.623172521591187E-001,3.869608044624329E-002,2.956474944949150E-002,-8.031737208366394E-001,5.623172521591187E-001,
1.233833333333334E+009,3.495518118143082E-002,4.530237242579460E-002,-7.977306842803955E-001,5.739449858665466E-001,3.495518118143082E-002,4.530237242579460E-002,-7.977306842803955E-001,5.739449858665466E-001,
1.242200000000000E+009,4.424376413226128E-002,5.905786901712418E-002,-7.720771431922913E-001,6.073209643363953E-001,4.424376413226128E-002,5.905786901712418E-002,-7.720771431922913E-001,6.073209643363953E-001,
1.250566666666667E+009,5.830036103725433E-002,6.855492293834686E-002,-7.507496476173401E-001,6.124542951583862E-001,5.830036103725433E-002,6.855492293834686E-002,-7.507496476173401E-001,6.124542951583862E-001,
1.258933333333334E+009,7.935722172260284E-002,6.839215755462647E-002,-7.447348237037659E-001,6.337671875953674E-001,7.935722172260284E-002,6.839215755462647E-002,-7.447348237037659E-001,6.337671875953674E-001,
1.267300000000000E+009,9.936173260211945E-002,5.747144296765328E-002,-7.253998517990112E-001,6.480105519294739E-001,9.936173260211945E-002,5.747144296765328E-002,-7.253998517990112E-001,6.480105519294739E-001,
1.275666666666667E+009,1.084245294332504E-001,3.936233371496201E-002,-7.131345868110657E-001,6.552906632423401E-001,1.084245294332504E-001,3.936233371496201E-002,-7.131345868110657E-001,6.552906632423401E-001,
1.284033333333334E+009,1.103794649243355E-001,1.802283152937889E-002,-6.964296698570252E-001,6.973961591720581E-001,1.103794649243355E-001,1.802283152937889E-002,-6.964296698570252E-001,6.973961591720581E-001,
1.292400000000000E+009,9.978550672531128E-002,-8.841733215376735E-004,-6.843497753143311E-001,7.004535198211670E-001,9.978550672531128E-002,-8.841733215376735E-004,-6.843497753143311E-001,7.004535198211670E-001,
1.300766666666667E+009,7.999581098556519E-002,-9.905080311000347E-003,-6.620230078697205E-001,7.247762680053711E-001,7.999581098556519E-002,-9.905080311000347E-003,-6.620230078697205E-001,7.247762680053711E-001,
1.309133333333334E+009,5.953974276781082E-002,-9.270798414945602E-003,-6.374404430389404E-001,7.386548519134522E-001,5.953974276781082E-002,-9.270798414945602E-003,-6.374404430389404E-001,7.386548519134522E-001,
1.317500000000000E+009,4.504452645778656E-002,1.838282798416913E-003,-6.246944665908814E-001,7.699131965637207E-001,4.504452645778656E-002,1.838282798416913E-003,-6.246944665908814E-001,7.699131965637207E-001,
1.325866666666667E+009,4.071739315986633E-002,1.782012544572353E-002,-6.043704748153687E-001,7.834762334823608E-001,4.071739315986633E-002,1.782012544572353E-002,-6.043704748153687E-001,7.834762334823608E-001,
1.334233333333334E+009,4.933053255081177E-002,3.442809358239174E-002,-5.860894918441773E-001,7.893437147140503E-001,4.933053255081177E-002,3.442809358239174E-002,-5.860894918441773E-001,7.893437147140503E-001,
1.342600000000000E+009,6.545375287532806E-002,4.253539815545082E-002,-5.681511163711548E-001,8.059926629066467E-001,6.545375287532806E-002,4.253539815545082E-002,-5.681511163711548E-001,8.059926629066467E-001,
1.350966666666667E+009,8.612518012523651E-002,3.909169137477875E-002,-5.421012639999390E-001,8.184096217155457E-001,8.612518012523651E-002,3.909169137477875E-002,-5.421012639999390E-001,8.184096217155457E-001,
1.359333333333334E+009,1.016885861754417E-001,2.525198273360729E-002,-5.291869044303894E-001,8.176115751266480E-001,1.016885861754417E-001,2.525198273360729E-002,-5.291869044303894E-001,8.176115751266480E-001,
1.367700000000000E+009,1.078470200300217E-001,5.383869633078575E-003,-4.953540861606598E-001,8.362278938293457E-001,1.078470200300217E-001,5.383869633078575E-003,-4.953540861606598E-001,8.362278938293457E-001,
1.376066666666667E+009,1.041981950402260E-001,-1.714689843356609E-002,-4.799843728542328E-001,8.443964719772339E-001,1.041981950402260E-001,-1.714689843356609E-002,-4.799843728542328E-001,8.443964719772339E-001,
1.384433333333334E+009,8.704642951488495E-002,-3.231866657733917E-002,-4.654791653156281E-001,8.748871684074402E-001,8.704642951488495E-002,-3.231866657733917E-002,-4.654791653156281E-001,8.748871684074402E-001,
1.392800000000000E+009,6.606324017047882E-002,-3.491762280464172E-002,-4.444767534732819E-001,8.828687667846680E-001,6.606324017047882E-002,-3.491762280464172E-002,-4.444767534732819E-001,8.828687667846680E-001,
1.401166666666667E+009,4.517697542905808E-002,-2.793093584477902E-002,-4.176948368549347E-001,8.905454874038696E-001,4.517697542905808E-002,-2.793093584477902E-002,-4.176948368549347E-001,8.905454874038696E-001,
1.409533333333334E+009,3.108689934015274E-002,-1.141097303479910E-002,-3.877548575401306E-001,9.045184254646301E-001,3.108689934015274E-002,-1.141097303479910E-002,-3.877548575401306E-001,9.045184254646301E-001,
1.417900000000000E+009,3.187290206551552E-002,1.093810331076384E-002,-3.685693144798279E-001,9.014458656311035E-001,3.187290206551552E-002,1.093810331076384E-002,-3.685693144798279E-001,9.014458656311035E-001,
1.426266666666667E+009,4.258931055665016E-002,2.671675942838192E-002,-3.311583399772644E-001,9.269111752510071E-001,4.258931055665016E-002,2.671675942838192E-002,-3.311583399772644E-001,9.269111752510071E-001,
1.434633333333334E+009,6.321994215250015E-002,3.377842530608177E-002,-3.217067420482636E-001,9.206486940383911E-001,6.321994215250015E-002,3.377842530608177E-002,-3.217067420482636E-001,9.206486940383911E-001,
1.443000000000000E+009,8.396776020526886E-002,2.976788021624088E-002,-2.969897389411926E-001,9.283499121665955E-001,8.396776020526886E-002,2.976788021624088E-002,-2.969897389411926E-001,9.283499121665955E-001,
1.451366666666667E+009,1.002441197633743E-001,1.333824638277292E-002,-2.713429629802704E-001,9.285821914672852E-001,1.002441197633743E-001,1.333824638277292E-002,-2.713429629802704E-001,9.285821914672852E-001,
1.459733333333334E+009,1.070629507303238E-001,-7.525579538196325E-003,-2.454040795564652E-001,9.548999071121216E-001,1.070629507303238E-001,-7.525579538196325E-003,-2.454040795564652E-001,9.548999071121216E-001,
