% Version 1.00
%
%freq[Hz],re:Trc1_S11,im:Trc1_S11,re:Trc2_S21,im:Trc2_S21,re:Trc3_S11,im:Trc3_S11,re:Trc4_S21,im:Trc4_S21,
6.900000000000000E+008,-4.996554180979729E-002,3.982890397310257E-002,-5.059526562690735E-001,-8.507951498031616E-001,-4.996554180979729E-002,3.982890397310257E-002,-5.059526562690735E-001,-8.507951498031616E-001,
6.983666666666666E+008,-4.181284084916115E-002,4.052230715751648E-002,-5.312320590019226E-001,-8.398107886314392E-001,-4.181284084916115E-002,4.052230715751648E-002,-5.312320590019226E-001,-8.398107886314392E-001,
7.067333333333334E+008,-3.569340333342552E-002,3.620684519410133E-002,-5.536211729049683E-001,-8.140425682067871E-001,-3.569340333342552E-002,3.620684519410133E-002,-5.536211729049683E-001,-8.140425682067871E-001,
7.151000000000000E+008,-3.503571823239327E-002,2.869851514697075E-002,-5.883324742317200E-001,-8.111824393272400E-001,-3.503571823239327E-002,2.869851514697075E-002,-5.883324742317200E-001,-8.111824393272400E-001,
7.234666666666666E+008,-3.686586022377014E-002,2.346169017255306E-002,-6.019466519355774E-001,-7.956944108009338E-001,-3.686586022377014E-002,2.346169017255306E-002,-6.019466519355774E-001,-7.956944108009338E-001,
7.318333333333334E+008,-4.413343220949173E-002,2.103353291749954E-002,-6.192624568939209E-001,-7.780159115791321E-001,-4.413343220949173E-002,2.103353291749954E-002,-6.192624568939209E-001,-7.780159115791321E-001,
7.402000000000000E+008,-5.035644397139549E-002,2.285882085561752E-002,-6.297732591629028E-001,-7.528408169746399E-001,-5.035644397139549E-002,2.285882085561752E-002,-6.297732591629028E-001,-7.528408169746399E-001,
7.485666666666666E+008,-5.580986663699150E-002,2.972564287483692E-002,-6.596652865409851E-001,-7.396833896636963E-001,-5.580986663699150E-002,2.972564287483692E-002,-6.596652865409851E-001,-7.396833896636963E-001,
7.569333333333334E+008,-5.979400500655174E-002,3.950240835547447E-002,-6.784759163856506E-001,-7.259345650672913E-001,-5.979400500655174E-002,3.950240835547447E-002,-6.784759163856506E-001,-7.259345650672913E-001,
7.653000000000000E+008,-5.441397055983543E-002,4.852649196982384E-002,-6.856387853622437E-001,-7.065848112106323E-001,-5.441397055983543E-002,4.852649196982384E-002,-6.856387853622437E-001,-7.065848112106323E-001,
7.736666666666666E+008,-4.808983951807022E-002,5.541766434907913E-002,-6.984547972679138E-001,-7.027893662452698E-001,-4.808983951807022E-002,5.541766434907913E-002,-6.984547972679138E-001,-7.027893662452698E-001,
7.820333333333334E+008,-3.931793943047524E-002,5.967656895518303E-002,-7.320574522018433E-001,-6.741850376129150E-001,-3.931793943047524E-002,5.967656895518303E-002,-7.320574522018433E-001,-6.741850376129150E-001,
7.904000000000000E+008,-2.921728789806366E-002,5.872642621397972E-002,-7.410200238227844E-001,-6.551470160484314E-001,-2.921728789806366E-002,5.872642621397972E-002,-7.410200238227844E-001,-6.551470160484314E-001,
7.987666666666666E+008,-2.466338872909546E-002,5.357327312231064E-002,-7.461827993392944E-001,-6.394326090812683E-001,-2.466338872909546E-002,5.357327312231064E-002,-7.461827993392944E-001,-6.394326090812683E-001,
8.071333333333334E+008,-2.262739092111588E-002,4.711027070879936E-002,-7.724456787109375E-001,-6.074252128601074E-001,-2.262739092111588E-002,4.711027070879936E-002,-7.724456787109375E-001,-6.074252128601074E-001,
8.155000000000000E+008,-2.550447918474674E-002,4.002734273672104E-002,-7.991185188293457E-001,-5.958924889564514E-001,-2.550447918474674E-002,4.002734273672104E-002,-7.991185188293457E-001,-5.958924889564514E-001,
8.238666666666666E+008,-3.227540850639343E-002,3.810959309339523E-002,-8.050335645675659E-001,-5.723525285720825E-001,-3.227540850639343E-002,3.810959309339523E-002,-8.050335645675659E-001,-5.723525285720825E-001,
8.322333333333334E+008,-3.793578222393990E-002,3.954767435789108E-002,-8.139600157737732E-001,-5.543125867843628E-001,-3.793578222393990E-002,3.954767435789108E-002,-8.139600157737732E-001,-5.543125867843628E-001,
8.406000000000000E+008,-4.274189099669457E-002,4.291139170527458E-002,-8.260320425033569E-001,-5.316507220268250E-001,-4.274189099669457E-002,4.291139170527458E-002,-8.260320425033569E-001,-5.316507220268250E-001,
8.489666666666668E+008,-4.432200267910957E-002,5.417749658226967E-002,-8.376362919807434E-001,-5.022621154785156E-001,-4.432200267910957E-002,5.417749658226967E-002,-8.376362919807434E-001,-5.022621154785156E-001,
8.573333333333334E+008,-4.212081804871559E-002,6.210619583725929E-002,-8.393313288688660E-001,-4.719026386737824E-001,-4.212081804871559E-002,6.210619583725929E-002,-8.393313288688660E-001,-4.719026386737824E-001,
8.657000000000000E+008,-3.660144656896591E-002,6.977292150259018E-002,-8.671110272407532E-001,-4.760925173759460E-001,-3.660144656896591E-002,6.977292150259018E-002,-8.671110272407532E-001,-4.760925173759460E-001,
8.740666666666668E+008,-2.725633233785629E-002,7.488689571619034E-002,-8.731110692024231E-001,-4.509732425212860E-001,-2.725633233785629E-002,7.488689571619034E-002,-8.731110692024231E-001,-4.509732425212860E-001,
8.824333333333334E+008,-1.886216364800930E-002,7.633929699659348E-002,-8.912433981895447E-001,-4.264496266841888E-001,-1.886216364800930E-002,7.633929699659348E-002,-8.912433981895447E-001,-4.264496266841888E-001,
8.908000000000000E+008,-1.059932634234428E-002,7.272688299417496E-002,-9.045336246490479E-001,-4.091051518917084E-001,-1.059932634234428E-002,7.272688299417496E-002,-9.045336246490479E-001,-4.091051518917084E-001,
8.991666666666668E+008,-5.057545844465494E-003,6.666306406259537E-002,-9.047132134437561E-001,-3.822235763072968E-001,-5.057545844465494E-003,6.666306406259537E-002,-9.047132134437561E-001,-3.822235763072968E-001,
9.075333333333334E+008,-4.684520885348320E-003,5.920113250613213E-002,-9.188845157623291E-001,-3.567090928554535E-001,-4.684520885348320E-003,5.920113250613213E-002,-9.188845157623291E-001,-3.567090928554535E-001,
9.159000000000000E+008,-7.688345853239298E-003,5.353225767612457E-002,-9.398447275161743E-001,-3.317051529884338E-001,-7.688345853239298E-003,5.353225767612457E-002,-9.398447275161743E-001,-3.317051529884338E-001,
9.242666666666668E+008,-1.449614949524403E-002,5.388053134083748E-002,-9.313067197799683E-001,-3.099056482315064E-001,-1.449614949524403E-002,5.388053134083748E-002,-9.313067197799683E-001,-3.099056482315064E-001,
9.326333333333334E+008,-1.955168694257736E-002,5.628274753689766E-002,-9.472962617874146E-001,-2.955431938171387E-001,-1.955168694257736E-002,5.628274753689766E-002,-9.472962617874146E-001,-2.955431938171387E-001,
9.410000000000000E+008,-2.345181256532669E-002,6.072502955794334E-002,-9.571058750152588E-001,-2.595115303993225E-001,-2.345181256532669E-002,6.072502955794334E-002,-9.571058750152588E-001,-2.595115303993225E-001,
9.493666666666668E+008,-2.464538067579269E-002,7.001771032810211E-002,-9.616661667823792E-001,-2.287136763334274E-001,-2.464538067579269E-002,7.001771032810211E-002,-9.616661667823792E-001,-2.287136763334274E-001,
9.577333333333334E+008,-2.065793611109257E-002,7.973062992095947E-002,-9.675574302673340E-001,-2.153333574533463E-001,-2.065793611109257E-002,7.973062992095947E-002,-9.675574302673340E-001,-2.153333574533463E-001,
9.661000000000000E+008,-1.160290185362101E-002,8.609894663095474E-002,-9.685554504394531E-001,-1.729722321033478E-001,-1.160290185362101E-002,8.609894663095474E-002,-9.685554504394531E-001,-1.729722321033478E-001,
9.744666666666668E+008,-6.038025603629649E-004,8.596055954694748E-002,-9.661226868629456E-001,-1.622471660375595E-001,-6.038025603629649E-004,8.596055954694748E-002,-9.661226868629456E-001,-1.622471660375595E-001,
9.828333333333334E+008,8.583927527070046E-003,8.674152940511704E-002,-9.812446832656860E-001,-1.423335522413254E-001,8.583927527070046E-003,8.674152940511704E-002,-9.812446832656860E-001,-1.423335522413254E-001,
9.912000000000000E+008,1.899942196905613E-002,8.005812764167786E-002,-9.786121249198914E-001,-1.205767467617989E-001,1.899942196905613E-002,8.005812764167786E-002,-9.786121249198914E-001,-1.205767467617989E-001,
9.995666666666668E+008,2.260652184486389E-002,7.230140268802643E-002,-9.909483790397644E-001,-8.322256803512573E-002,2.260652184486389E-002,7.230140268802643E-002,-9.909483790397644E-001,-8.322256803512573E-002,
1.007933333333333E+009,2.610567957162857E-002,6.300225108861923E-002,-1.004063725471497E+000,-6.512686610221863E-002,2.610567957162857E-002,6.300225108861923E-002,-1.004063725471497E+000,-6.512686610221863E-002,
1.016300000000000E+009,2.001989819109440E-002,5.738190934062004E-002,-9.899458885192871E-001,-3.910485282540321E-002,2.001989819109440E-002,5.738190934062004E-002,-9.899458885192871E-001,-3.910485282540321E-002,
1.024666666666667E+009,1.233998872339726E-002,5.401526018977165E-002,-9.854918718338013E-001,-1.315005123615265E-002,1.233998872339726E-002,5.401526018977165E-002,-9.854918718338013E-001,-1.315005123615265E-002,
1.033033333333333E+009,7.589939981698990E-003,5.902026593685150E-002,-9.919447898864746E-001,1.355481520295143E-002,7.589939981698990E-003,5.902026593685150E-002,-9.919447898864746E-001,1.355481520295143E-002,
1.041400000000000E+009,1.282511744648218E-003,6.413162499666214E-002,-9.908754229545593E-001,3.462598472833633E-002,1.282511744648218E-003,6.413162499666214E-002,-9.908754229545593E-001,3.462598472833633E-002,
1.049766666666667E+009,4.843833856284618E-003,7.339262217283249E-002,-9.764068126678467E-001,6.992067396640778E-002,4.843833856284618E-003,7.339262217283249E-002,-9.764068126678467E-001,6.992067396640778E-002,
1.058133333333333E+009,9.495122358202934E-003,8.220530301332474E-002,-9.779695272445679E-001,9.193089604377747E-002,9.495122358202934E-003,8.220530301332474E-002,-9.779695272445679E-001,9.193089604377747E-002,
1.066500000000000E+009,2.096448466181755E-002,8.584846556186676E-002,-9.920498132705689E-001,1.262055784463882E-001,2.096448466181755E-002,8.584846556186676E-002,-9.920498132705689E-001,1.262055784463882E-001,
1.074866666666667E+009,3.467852249741554E-002,8.403176069259644E-002,-9.857975840568543E-001,1.460809707641602E-001,3.467852249741554E-002,8.403176069259644E-002,-9.857975840568543E-001,1.460809707641602E-001,
1.083233333333334E+009,4.323428496718407E-002,7.556707412004471E-002,-9.692883491516113E-001,1.662150621414185E-001,4.323428496718407E-002,7.556707412004471E-002,-9.692883491516113E-001,1.662150621414185E-001,
1.091600000000000E+009,4.960057139396668E-002,6.479976326227188E-002,-9.516612291336060E-001,1.858199834823608E-001,4.960057139396668E-002,6.479976326227188E-002,-9.516612291336060E-001,1.858199834823608E-001,
1.099966666666667E+009,4.863032698631287E-002,5.147859826683998E-002,-9.465471506118774E-001,2.238939851522446E-001,4.863032698631287E-002,5.147859826683998E-002,-9.465471506118774E-001,2.238939851522446E-001,
1.108333333333334E+009,4.064640402793884E-002,4.397334530949593E-002,-9.468654990196228E-001,2.317533940076828E-001,4.064640402793884E-002,4.397334530949593E-002,-9.468654990196228E-001,2.317533940076828E-001,
1.116700000000000E+009,3.053064458072186E-002,4.121205210685730E-002,-9.393808841705322E-001,2.654076814651489E-001,3.053064458072186E-002,4.121205210685730E-002,-9.393808841705322E-001,2.654076814651489E-001,
1.125066666666667E+009,1.993826963007450E-002,4.622706398367882E-002,-9.399088621139526E-001,2.823069691658020E-001,1.993826963007450E-002,4.622706398367882E-002,-9.399088621139526E-001,2.823069691658020E-001,
1.133433333333334E+009,1.269186194986105E-002,5.619725957512856E-002,-9.367994666099548E-001,3.272982537746429E-001,1.269186194986105E-002,5.619725957512856E-002,-9.367994666099548E-001,3.272982537746429E-001,
1.141800000000000E+009,1.197295729070902E-002,6.953664124011993E-002,-9.135220646858215E-001,3.414939641952515E-001,1.197295729070902E-002,6.953664124011993E-002,-9.135220646858215E-001,3.414939641952515E-001,
1.150166666666667E+009,2.119806595146656E-002,8.335601538419724E-002,-9.049711227416992E-001,3.421067595481873E-001,2.119806595146656E-002,8.335601538419724E-002,-9.049711227416992E-001,3.421067595481873E-001,
1.158533333333334E+009,3.732732310891151E-002,8.986478298902512E-002,-8.969951272010803E-001,3.825286626815796E-001,3.732732310891151E-002,8.986478298902512E-002,-8.969951272010803E-001,3.825286626815796E-001,
1.166900000000000E+009,5.644188076257706E-002,8.912058174610138E-002,-8.800953626632690E-001,4.023815095424652E-001,5.644188076257706E-002,8.912058174610138E-002,-8.800953626632690E-001,4.023815095424652E-001,
1.175266666666667E+009,7.201006263494492E-002,7.775906473398209E-002,-8.744611740112305E-001,4.310476481914520E-001,7.201006263494492E-002,7.775906473398209E-002,-8.744611740112305E-001,4.310476481914520E-001,
1.183633333333334E+009,8.361886441707611E-002,6.266617029905319E-002,-8.730043172836304E-001,4.429817795753479E-001,8.361886441707611E-002,6.266617029905319E-002,-8.730043172836304E-001,4.429817795753479E-001,
1.192000000000000E+009,8.342356234788895E-002,4.386826232075691E-002,-8.601493835449219E-001,4.654338955879211E-001,8.342356234788895E-002,4.386826232075691E-002,-8.601493835449219E-001,4.654338955879211E-001,
1.200366666666667E+009,7.410784810781479E-002,2.768020145595074E-002,-8.474658131599426E-001,4.862062931060791E-001,7.410784810781479E-002,2.768020145595074E-002,-8.474658131599426E-001,4.862062931060791E-001,
1.208733333333334E+009,5.969527363777161E-002,1.932314038276672E-002,-8.403849005699158E-001,5.282020568847656E-001,5.969527363777161E-002,1.932314038276672E-002,-8.403849005699158E-001,5.282020568847656E-001,
1.217100000000000E+009,4.438949748873711E-002,2.091152779757977E-002,-8.361108899116516E-001,5.382986068725586E-001,4.438949748873711E-002,2.091152779757977E-002,-8.361108899116516E-001,5.382986068725586E-001,
1.225466666666667E+009,3.274512290954590E-002,3.216464444994927E-002,-8.034696578979492E-001,5.624992251396179E-001,3.274512290954590E-002,3.216464444994927E-002,-8.034696578979492E-001,5.624992251396179E-001,
1.233833333333334E+009,2.889211289584637E-002,4.869591817259789E-002,-7.983337640762329E-001,5.736569166183472E-001,2.889211289584637E-002,4.869591817259789E-002,-7.983337640762329E-001,5.736569166183472E-001,
1.242200000000000E+009,3.768595308065414E-002,6.267663091421127E-002,-7.728886008262634E-001,6.067442297935486E-001,3.768595308065414E-002,6.267663091421127E-002,-7.728886008262634E-001,6.067442297935486E-001,
1.250566666666667E+009,5.097499117255211E-002,7.219212502241135E-002,-7.510825991630554E-001,6.121492981910706E-001,5.097499117255211E-002,7.219212502241135E-002,-7.510825991630554E-001,6.121492981910706E-001,
1.258933333333334E+009,7.113213837146759E-002,7.160462439060211E-002,-7.451598644256592E-001,6.339671015739441E-001,7.113213837146759E-002,7.160462439060211E-002,-7.451598644256592E-001,6.339671015739441E-001,
1.267300000000000E+009,9.031478315591812E-002,6.029658764600754E-002,-7.267045378684998E-001,6.477963328361511E-001,9.031478315591812E-002,6.029658764600754E-002,-7.267045378684998E-001,6.477963328361511E-001,
1.275666666666667E+009,9.890221059322357E-002,4.197880998253822E-002,-7.143974900245667E-001,6.554089188575745E-001,9.890221059322357E-002,4.197880998253822E-002,-7.143974900245667E-001,6.554089188575745E-001,
1.284033333333334E+009,1.007553040981293E-001,2.069356478750706E-002,-6.977076530456543E-001,6.976245045661926E-001,1.007553040981293E-001,2.069356478750706E-002,-6.977076530456543E-001,6.976245045661926E-001,
1.292400000000000E+009,9.060008823871613E-002,2.138270996510983E-003,-6.858031749725342E-001,7.011550664901733E-001,9.060008823871613E-002,2.138270996510983E-003,-6.858031749725342E-001,7.011550664901733E-001,
1.300766666666667E+009,7.167536020278931E-002,-6.194256246089935E-003,-6.631435155868530E-001,7.252312898635864E-001,7.167536020278931E-002,-6.194256246089935E-003,-6.631435155868530E-001,7.252312898635864E-001,
1.309133333333334E+009,5.217503756284714E-002,-4.619503859430552E-003,-6.381756663322449E-001,7.396144270896912E-001,5.217503756284714E-002,-4.619503859430552E-003,-6.381756663322449E-001,7.396144270896912E-001,
1.317500000000000E+009,3.838477656245232E-002,7.519586011767387E-003,-6.247240900993347E-001,7.699981331825256E-001,3.838477656245232E-002,7.519586011767387E-003,-6.247240900993347E-001,7.699981331825256E-001,
1.325866666666667E+009,3.447073325514793E-002,2.445929870009422E-002,-6.047140359878540E-001,7.847498655319214E-001,3.447073325514793E-002,2.445929870009422E-002,-6.047140359878540E-001,7.847498655319214E-001,
1.334233333333334E+009,4.316028580069542E-002,4.183822125196457E-002,-5.861372947692871E-001,7.902750372886658E-001,4.316028580069542E-002,4.183822125196457E-002,-5.861372947692871E-001,7.902750372886658E-001,
1.342600000000000E+009,5.888680368661881E-002,5.034396424889565E-002,-5.685065388679504E-001,8.073559403419495E-001,5.888680368661881E-002,5.034396424889565E-002,-5.685065388679504E-001,8.073559403419495E-001,
1.350966666666667E+009,7.893632352352142E-002,4.688311740756035E-002,-5.415514707565308E-001,8.191130161285400E-001,7.893632352352142E-002,4.688311740756035E-002,-5.415514707565308E-001,8.191130161285400E-001,
1.359333333333334E+009,9.344112128019333E-002,3.284442797303200E-002,-5.284596085548401E-001,8.181561231613159E-001,9.344112128019333E-002,3.284442797303200E-002,-5.284596085548401E-001,8.181561231613159E-001,
1.367700000000000E+009,9.882226586341858E-002,1.272961497306824E-002,-4.952100217342377E-001,8.365027308464050E-001,9.882226586341858E-002,1.272961497306824E-002,-4.952100217342377E-001,8.365027308464050E-001,
1.376066666666667E+009,9.468868374824524E-002,-9.641434065997601E-003,-4.798442125320435E-001,8.458471894264221E-001,9.468868374824524E-002,-9.641434065997601E-003,-4.798442125320435E-001,8.458471894264221E-001,
1.384433333333334E+009,7.757671922445297E-002,-2.494639903306961E-002,-4.644135832786560E-001,8.761197328567505E-001,7.757671922445297E-002,-2.494639903306961E-002,-4.644135832786560E-001,8.761197328567505E-001,
1.392800000000000E+009,5.735683441162109E-002,-2.733686752617359E-002,-4.432235956192017E-001,8.843539953231812E-001,5.735683441162109E-002,-2.733686752617359E-002,-4.432235956192017E-001,8.843539953231812E-001,
1.401166666666667E+009,3.771466761827469E-002,-1.993850246071816E-002,-4.162480235099793E-001,8.913714885711670E-001,3.771466761827469E-002,-1.993850246071816E-002,-4.162480235099793E-001,8.913714885711670E-001,
1.409533333333334E+009,2.515275776386261E-002,-2.868754556402564E-003,-3.866060972213745E-001,9.056331515312195E-001,2.515275776386261E-002,-2.868754556402564E-003,-3.866060972213745E-001,9.056331515312195E-001,
1.417900000000000E+009,2.691359072923660E-002,2.013314701616764E-002,-3.673223853111267E-001,9.011713266372681E-001,2.691359072923660E-002,2.013314701616764E-002,-3.673223853111267E-001,9.011713266372681E-001,
1.426266666666667E+009,3.830533474683762E-002,3.670082241296768E-002,-3.298116922378540E-001,9.266914725303650E-001,3.830533474683762E-002,3.670082241296768E-002,-3.298116922378540E-001,9.266914725303650E-001,
1.434633333333334E+009,5.913893133401871E-002,4.460997134447098E-002,-3.203405737876892E-001,9.204947352409363E-001,5.913893133401871E-002,4.460997134447098E-002,-3.203405737876892E-001,9.204947352409363E-001,
1.443000000000000E+009,7.967805862426758E-002,4.138303175568581E-002,-2.958643734455109E-001,9.278836846351624E-001,7.967805862426758E-002,4.138303175568581E-002,-2.958643734455109E-001,9.278836846351624E-001,
1.451366666666667E+009,9.531708061695099E-002,2.540008910000324E-002,-2.702588438987732E-001,9.277362227439880E-001,9.531708061695099E-002,2.540008910000324E-002,-2.702588438987732E-001,9.277362227439880E-001,
1.459733333333334E+009,1.015004441142082E-001,4.741176497191191E-003,-2.445003688335419E-001,9.539879560470581E-001,1.015004441142082E-001,4.741176497191191E-003,-2.445003688335419E-001,9.539879560470581E-001,
