% Version 1.00
%
%freq[Hz],re:Trc1_S11,im:Trc1_S11,re:Trc2_S21,im:Trc2_S21,re:Trc3_S11,im:Trc3_S11,re:Trc4_S21,im:Trc4_S21,
6.900000000000000E+008,-4.092372581362724E-002,2.958926372230053E-002,-4.951409399509430E-001,-8.572517633438110E-001,-4.092372581362724E-002,2.958926372230053E-002,-4.951409399509430E-001,-8.572517633438110E-001,
6.983666666666666E+008,-3.293240070343018E-002,2.975860238075256E-002,-5.207727551460266E-001,-8.462462425231934E-001,-3.293240070343018E-002,2.975860238075256E-002,-5.207727551460266E-001,-8.462462425231934E-001,
7.067333333333334E+008,-2.684128843247891E-002,2.496015466749668E-002,-5.435233116149902E-001,-8.217565417289734E-001,-2.684128843247891E-002,2.496015466749668E-002,-5.435233116149902E-001,-8.217565417289734E-001,
7.151000000000000E+008,-2.611796930432320E-002,1.677711308002472E-002,-5.780096650123596E-001,-8.181364536285400E-001,-2.611796930432320E-002,1.677711308002472E-002,-5.780096650123596E-001,-8.181364536285400E-001,
7.234666666666666E+008,-2.769220434129238E-002,1.133966166526079E-002,-5.928993225097656E-001,-8.028779625892639E-001,-2.769220434129238E-002,1.133966166526079E-002,-5.928993225097656E-001,-8.028779625892639E-001,
7.318333333333334E+008,-3.464226797223091E-002,8.800879120826721E-003,-6.084368228912354E-001,-7.857248783111572E-001,-3.464226797223091E-002,8.800879120826721E-003,-6.084368228912354E-001,-7.857248783111572E-001,
7.402000000000000E+008,-4.086638987064362E-002,1.052858494222164E-002,-6.195316314697266E-001,-7.626607418060303E-001,-4.086638987064362E-002,1.052858494222164E-002,-6.195316314697266E-001,-7.626607418060303E-001,
7.485666666666666E+008,-4.634333401918411E-002,1.739478670060635E-002,-6.498852372169495E-001,-7.484153509140015E-001,-4.634333401918411E-002,1.739478670060635E-002,-6.498852372169495E-001,-7.484153509140015E-001,
7.569333333333334E+008,-5.074191838502884E-002,2.691157907247543E-002,-6.678772568702698E-001,-7.360842227935791E-001,-5.074191838502884E-002,2.691157907247543E-002,-6.678772568702698E-001,-7.360842227935791E-001,
7.653000000000000E+008,-4.628195241093636E-002,3.594415262341499E-002,-6.765732765197754E-001,-7.163010239601135E-001,-4.628195241093636E-002,3.594415262341499E-002,-6.765732765197754E-001,-7.163010239601135E-001,
7.736666666666666E+008,-4.077413678169251E-002,4.232839867472649E-002,-6.878086924552918E-001,-7.145413756370544E-001,-4.077413678169251E-002,4.232839867472649E-002,-6.878086924552918E-001,-7.145413756370544E-001,
7.820333333333334E+008,-3.298803791403770E-002,4.616836830973625E-002,-7.225087285041809E-001,-6.851204633712769E-001,-3.298803791403770E-002,4.616836830973625E-002,-7.225087285041809E-001,-6.851204633712769E-001,
7.904000000000000E+008,-2.366018667817116E-002,4.481822252273560E-002,-7.320427894592285E-001,-6.660420894622803E-001,-2.366018667817116E-002,4.481822252273560E-002,-7.320427894592285E-001,-6.660420894622803E-001,
7.987666666666666E+008,-1.971800439059734E-002,3.898752108216286E-002,-7.365176677703857E-001,-6.500880718231201E-001,-1.971800439059734E-002,3.898752108216286E-002,-7.365176677703857E-001,-6.500880718231201E-001,
8.071333333333334E+008,-1.756019704043865E-002,3.211739659309387E-002,-7.628766894340515E-001,-6.207952499389648E-001,-1.756019704043865E-002,3.211739659309387E-002,-7.628766894340515E-001,-6.207952499389648E-001,
8.155000000000000E+008,-2.039585821330547E-002,2.459542453289032E-002,-7.902420759201050E-001,-6.084418296813965E-001,-2.039585821330547E-002,2.459542453289032E-002,-7.902420759201050E-001,-6.084418296813965E-001,
8.238666666666666E+008,-2.642972394824028E-002,2.226151712238789E-002,-7.976329326629639E-001,-5.851689577102661E-001,-2.642972394824028E-002,2.226151712238789E-002,-7.976329326629639E-001,-5.851689577102661E-001,
8.322333333333334E+008,-3.179099038243294E-002,2.311369404196739E-002,-8.064739704132080E-001,-5.671262145042419E-001,-3.179099038243294E-002,2.311369404196739E-002,-8.064739704132080E-001,-5.671262145042419E-001,
8.406000000000000E+008,-3.642286360263825E-002,2.633828110992909E-002,-8.208474516868591E-001,-5.461931228637695E-001,-3.642286360263825E-002,2.633828110992909E-002,-8.208474516868591E-001,-5.461931228637695E-001,
8.489666666666668E+008,-3.837527707219124E-002,3.738617524504662E-002,-8.305355906486511E-001,-5.168507695198059E-001,-3.837527707219124E-002,3.738617524504662E-002,-8.305355906486511E-001,-5.168507695198059E-001,
8.573333333333334E+008,-3.696419671177864E-002,4.561232030391693E-002,-8.337948322296143E-001,-4.868005216121674E-001,-3.696419671177864E-002,4.561232030391693E-002,-8.337948322296143E-001,-4.868005216121674E-001,
8.657000000000000E+008,-3.237519413232803E-002,5.367182195186615E-002,-8.618468046188355E-001,-4.922563135623932E-001,-3.237519413232803E-002,5.367182195186615E-002,-8.618468046188355E-001,-4.922563135623932E-001,
8.740666666666668E+008,-2.425774931907654E-002,5.886102095246315E-002,-8.668513298034668E-001,-4.665372073650360E-001,-2.425774931907654E-002,5.886102095246315E-002,-8.668513298034668E-001,-4.665372073650360E-001,
8.824333333333334E+008,-1.674399152398109E-002,6.043318659067154E-002,-8.859812021255493E-001,-4.418582320213318E-001,-1.674399152398109E-002,6.043318659067154E-002,-8.859812021255493E-001,-4.418582320213318E-001,
8.908000000000000E+008,-9.393910877406597E-003,5.680486932396889E-002,-9.013219475746155E-001,-4.251747429370880E-001,-9.393910877406597E-003,5.680486932396889E-002,-9.013219475746155E-001,-4.251747429370880E-001,
8.991666666666668E+008,-4.414436407387257E-003,5.057895183563232E-002,-9.017854332923889E-001,-3.972552716732025E-001,-4.414436407387257E-003,5.057895183563232E-002,-9.017854332923889E-001,-3.972552716732025E-001,
9.075333333333334E+008,-4.315301310271025E-003,4.229893907904625E-002,-9.146443009376526E-001,-3.724453747272492E-001,-4.315301310271025E-003,4.229893907904625E-002,-9.146443009376526E-001,-3.724453747272492E-001,
9.159000000000000E+008,-6.556363776326180E-003,3.590304777026177E-002,-9.351680278778076E-001,-3.472505807876587E-001,-6.556363776326180E-003,3.590304777026177E-002,-9.351680278778076E-001,-3.472505807876587E-001,
9.242666666666668E+008,-1.325008552521467E-002,3.553494811058044E-002,-9.274232983589172E-001,-3.259842097759247E-001,-1.325008552521467E-002,3.553494811058044E-002,-9.274232983589172E-001,-3.259842097759247E-001,
9.326333333333334E+008,-1.794586516916752E-002,3.724671527743340E-002,-9.444822669029236E-001,-3.114514052867889E-001,-1.794586516916752E-002,3.724671527743340E-002,-9.444822669029236E-001,-3.114514052867889E-001,
9.410000000000000E+008,-2.200565859675407E-002,4.116925597190857E-002,-9.540880322456360E-001,-2.763385772705078E-001,-2.200565859675407E-002,4.116925597190857E-002,-9.540880322456360E-001,-2.763385772705078E-001,
9.493666666666668E+008,-2.388044819235802E-002,5.068245157599449E-002,-9.587239623069763E-001,-2.457501888275147E-001,-2.388044819235802E-002,5.068245157599449E-002,-9.587239623069763E-001,-2.457501888275147E-001,
9.577333333333334E+008,-2.100673690438271E-002,6.085198372602463E-002,-9.662092924118042E-001,-2.326202094554901E-001,-2.100673690438271E-002,6.085198372602463E-002,-9.662092924118042E-001,-2.326202094554901E-001,
9.661000000000000E+008,-1.292985491454601E-002,6.801768392324448E-002,-9.677069187164307E-001,-1.906711757183075E-001,-1.292985491454601E-002,6.801768392324448E-002,-9.677069187164307E-001,-1.906711757183075E-001,
9.744666666666668E+008,-2.848696894943714E-003,6.906438618898392E-002,-9.659068584442139E-001,-1.806229799985886E-001,-2.848696894943714E-003,6.906438618898392E-002,-9.659068584442139E-001,-1.806229799985886E-001,
9.828333333333334E+008,5.556383170187473E-003,7.070434838533402E-002,-9.816940426826477E-001,-1.610411256551743E-001,5.556383170187473E-003,7.070434838533402E-002,-9.816940426826477E-001,-1.610411256551743E-001,
9.912000000000000E+008,1.552636921405792E-002,6.411314010620117E-002,-9.788122773170471E-001,-1.385429948568344E-001,1.552636921405792E-002,6.411314010620117E-002,-9.788122773170471E-001,-1.385429948568344E-001,
9.995666666666668E+008,1.885890029370785E-002,5.588553473353386E-002,-9.910836219787598E-001,-1.023542582988739E-001,1.885890029370785E-002,5.588553473353386E-002,-9.910836219787598E-001,-1.023542582988739E-001,
1.007933333333333E+009,2.197506465017796E-002,4.622861742973328E-002,-1.008493661880493E+000,-8.794482797384262E-002,2.197506465017796E-002,4.622861742973328E-002,-1.008493661880493E+000,-8.794482797384262E-002,
1.016300000000000E+009,1.594713702797890E-002,3.939890861511231E-002,-9.944871664047241E-001,-5.933827534317970E-002,1.594713702797890E-002,3.939890861511231E-002,-9.944871664047241E-001,-5.933827534317970E-002,
1.024666666666667E+009,8.367554284632206E-003,3.474719077348709E-002,-9.912565946578980E-001,-3.387777879834175E-002,8.367554284632206E-003,3.474719077348709E-002,-9.912565946578980E-001,-3.387777879834175E-002,
1.033033333333333E+009,3.373201237991452E-003,3.879503533244133E-002,-9.981480836868286E-001,-7.786514703184366E-003,3.373201237991452E-003,3.879503533244133E-002,-9.981480836868286E-001,-7.786514703184366E-003,
1.041400000000000E+009,-3.268892643973231E-003,4.363592714071274E-002,-9.991973042488098E-001,1.276589371263981E-002,-3.268892643973231E-003,4.363592714071274E-002,-9.991973042488098E-001,1.276589371263981E-002,
1.049766666666667E+009,-3.235914045944810E-004,5.354757234454155E-002,-9.843508005142212E-001,4.925335571169853E-002,-3.235914045944810E-004,5.354757234454155E-002,-9.843508005142212E-001,4.925335571169853E-002,
1.058133333333333E+009,3.520410507917404E-003,6.329249590635300E-002,-9.867942333221436E-001,7.224141061306000E-002,3.520410507917404E-003,6.329249590635300E-002,-9.867942333221436E-001,7.224141061306000E-002,
1.066500000000000E+009,1.433266233652830E-002,6.858281046152115E-002,-1.002268314361572E+000,1.062738969922066E-001,1.433266233652830E-002,6.858281046152115E-002,-1.002268314361572E+000,1.062738969922066E-001,
1.074866666666667E+009,2.748871594667435E-002,6.843625009059906E-002,-9.956188797950745E-001,1.263344436883926E-001,2.748871594667435E-002,6.843625009059906E-002,-9.956188797950745E-001,1.263344436883926E-001,
1.083233333333334E+009,3.598084300756455E-002,6.107858195900917E-002,-9.816319942474365E-001,1.481360793113709E-001,3.598084300756455E-002,6.107858195900917E-002,-9.816319942474365E-001,1.481360793113709E-001,
1.091600000000000E+009,4.187083616852760E-002,5.055980384349823E-002,-9.622284173965454E-001,1.686072796583176E-001,4.187083616852760E-002,5.055980384349823E-002,-9.622284173965454E-001,1.686072796583176E-001,
1.099966666666667E+009,4.087292775511742E-002,3.673523291945458E-002,-9.583414196968079E-001,2.054020762443543E-001,4.087292775511742E-002,3.673523291945458E-002,-9.583414196968079E-001,2.054020762443543E-001,
1.108333333333334E+009,3.256808966398239E-002,2.784054726362228E-002,-9.586876034736633E-001,2.137414067983627E-001,3.256808966398239E-002,2.784054726362228E-002,-9.586876034736633E-001,2.137414067983627E-001,
1.116700000000000E+009,2.173709869384766E-002,2.350661531090736E-002,-9.508243799209595E-001,2.471192181110382E-001,2.173709869384766E-002,2.350661531090736E-002,-9.508243799209595E-001,2.471192181110382E-001,
1.125066666666667E+009,1.021177787333727E-002,2.702361531555653E-002,-9.522666931152344E-001,2.645879089832306E-001,1.021177787333727E-002,2.702361531555653E-002,-9.522666931152344E-001,2.645879089832306E-001,
1.133433333333334E+009,1.889719162136316E-003,3.611815348267555E-002,-9.508301019668579E-001,3.088362812995911E-001,1.889719162136316E-003,3.611815348267555E-002,-9.508301019668579E-001,3.088362812995911E-001,
1.141800000000000E+009,1.214440053445287E-004,4.962456971406937E-002,-9.286189675331116E-001,3.251771926879883E-001,1.214440053445287E-004,4.962456971406937E-002,-9.286189675331116E-001,3.251771926879883E-001,
1.150166666666667E+009,9.176908060908318E-003,6.427667289972305E-002,-9.187017083168030E-001,3.240160346031189E-001,9.176908060908318E-003,6.427667289972305E-002,-9.187017083168030E-001,3.240160346031189E-001,
1.158533333333334E+009,2.468288503587246E-002,7.220602780580521E-002,-9.125932455062866E-001,3.653224110603333E-001,2.468288503587246E-002,7.220602780580521E-002,-9.125932455062866E-001,3.653224110603333E-001,
1.166900000000000E+009,4.362499713897705E-002,7.354487478733063E-002,-8.957445025444031E-001,3.858847618103027E-001,4.362499713897705E-002,7.354487478733063E-002,-8.957445025444031E-001,3.858847618103027E-001,
1.175266666666667E+009,5.957946553826332E-002,6.392706185579300E-002,-8.908243179321289E-001,4.165681898593903E-001,5.957946553826332E-002,6.392706185579300E-002,-8.908243179321289E-001,4.165681898593903E-001,
1.183633333333334E+009,7.166471332311630E-002,5.012920871376991E-002,-8.893622159957886E-001,4.277185499668121E-001,7.166471332311630E-002,5.012920871376991E-002,-8.893622159957886E-001,4.277185499668121E-001,
1.192000000000000E+009,7.154751569032669E-002,3.174700960516930E-002,-8.762036561965942E-001,4.496870636940002E-001,7.154751569032669E-002,3.174700960516930E-002,-8.762036561965942E-001,4.496870636940002E-001,
1.200366666666667E+009,6.194997206330299E-002,1.477687619626522E-002,-8.640522360801697E-001,4.722516834735870E-001,6.194997206330299E-002,1.477687619626522E-002,-8.640522360801697E-001,4.722516834735870E-001,
1.208733333333334E+009,4.662792757153511E-002,4.922151099890471E-003,-8.571698069572449E-001,5.135434865951538E-001,4.662792757153511E-002,4.922151099890471E-003,-8.571698069572449E-001,5.135434865951538E-001,
1.217100000000000E+009,2.991615422070026E-002,5.432535428553820E-003,-8.532004356384277E-001,5.232961177825928E-001,2.991615422070026E-002,5.432535428553820E-003,-8.532004356384277E-001,5.232961177825928E-001,
1.225466666666667E+009,1.685494929552078E-002,1.533305365592241E-002,-8.215541839599609E-001,5.480156540870667E-001,1.685494929552078E-002,1.533305365592241E-002,-8.215541839599609E-001,5.480156540870667E-001,
1.233833333333334E+009,1.173545140773058E-002,3.148713335394859E-002,-8.169719576835632E-001,5.602636337280273E-001,1.173545140773058E-002,3.148713335394859E-002,-8.169719576835632E-001,5.602636337280273E-001,
1.242200000000000E+009,1.992934383451939E-002,4.636040329933167E-002,-7.908256053924561E-001,5.936302542686462E-001,1.992934383451939E-002,4.636040329933167E-002,-7.908256053924561E-001,5.936302542686462E-001,
1.250566666666667E+009,3.304518014192581E-002,5.713436752557755E-002,-7.701484560966492E-001,5.983718037605286E-001,3.304518014192581E-002,5.713436752557755E-002,-7.701484560966492E-001,5.983718037605286E-001,
1.258933333333334E+009,5.417215451598167E-002,5.814534798264504E-002,-7.672830820083618E-001,6.229406595230103E-001,5.417215451598167E-002,5.814534798264504E-002,-7.672830820083618E-001,6.229406595230103E-001,
1.267300000000000E+009,7.403884828090668E-002,4.870415478944778E-002,-7.469702363014221E-001,6.373291015625000E-001,7.403884828090668E-002,4.870415478944778E-002,-7.469702363014221E-001,6.373291015625000E-001,
1.275666666666667E+009,8.384907990694046E-002,3.114614821970463E-002,-7.332838773727417E-001,6.460048556327820E-001,8.384907990694046E-002,3.114614821970463E-002,-7.332838773727417E-001,6.460048556327820E-001,
1.284033333333334E+009,8.625021576881409E-002,1.067548803985119E-002,-7.192561030387878E-001,6.877908110618591E-001,8.625021576881409E-002,1.067548803985119E-002,-7.192561030387878E-001,6.877908110618591E-001,
1.292400000000000E+009,7.561815530061722E-002,-8.120954036712647E-003,-7.061457037925720E-001,6.903370022773743E-001,7.561815530061722E-002,-8.120954036712647E-003,-7.061457037925720E-001,6.903370022773743E-001,
1.300766666666667E+009,5.558795854449272E-002,-1.737729832530022E-002,-6.839630603790283E-001,7.156613469123840E-001,5.558795854449272E-002,-1.737729832530022E-002,-6.839630603790283E-001,7.156613469123840E-001,
1.309133333333334E+009,3.418093174695969E-002,-1.674403436481953E-002,-6.597396135330200E-001,7.293475866317749E-001,3.418093174695969E-002,-1.674403436481953E-002,-6.597396135330200E-001,7.293475866317749E-001,
1.317500000000000E+009,1.853255182504654E-002,-5.238484125584364E-003,-6.481592059135437E-001,7.601137757301331E-001,1.853255182504654E-002,-5.238484125584364E-003,-6.481592059135437E-001,7.601137757301331E-001,
1.325866666666667E+009,1.265104580670595E-002,1.118564698845148E-002,-6.279947757720947E-001,7.756240367889404E-001,1.265104580670595E-002,1.118564698845148E-002,-6.279947757720947E-001,7.756240367889404E-001,
1.334233333333334E+009,2.023592963814735E-002,2.923535555601120E-002,-6.103454232215881E-001,7.821447253227234E-001,2.023592963814735E-002,2.923535555601120E-002,-6.103454232215881E-001,7.821447253227234E-001,
1.342600000000000E+009,3.566841036081314E-002,3.882255032658577E-002,-5.923601388931274E-001,7.982908487319946E-001,3.566841036081314E-002,3.882255032658577E-002,-5.923601388931274E-001,7.982908487319946E-001,
1.350966666666667E+009,5.623376742005348E-002,3.679212555289269E-002,-5.677106380462647E-001,8.127356171607971E-001,5.623376742005348E-002,3.679212555289269E-002,-5.677106380462647E-001,8.127356171607971E-001,
1.359333333333334E+009,7.220587879419327E-002,2.424442209303379E-002,-5.537940263748169E-001,8.121606707572937E-001,7.220587879419327E-002,2.424442209303379E-002,-5.537940263748169E-001,8.121606707572937E-001,
1.367700000000000E+009,7.942477613687515E-002,5.138779990375042E-003,-5.199065804481506E-001,8.323506712913513E-001,7.942477613687515E-002,5.138779990375042E-003,-5.199065804481506E-001,8.323506712913513E-001,
1.376066666666667E+009,7.627187669277191E-002,-1.676278002560139E-002,-5.051589012145996E-001,8.416277170181274E-001,7.627187669277191E-002,-1.676278002560139E-002,-5.051589012145996E-001,8.416277170181274E-001,
1.384433333333334E+009,5.943250283598900E-002,-3.223993629217148E-002,-4.902006685733795E-001,8.732849955558777E-001,5.943250283598900E-002,-3.223993629217148E-002,-4.902006685733795E-001,8.732849955558777E-001,
1.392800000000000E+009,3.810428455471993E-002,-3.478054329752922E-002,-4.697380065917969E-001,8.801012039184570E-001,3.810428455471993E-002,-3.478054329752922E-002,-4.697380065917969E-001,8.801012039184570E-001,
1.401166666666667E+009,1.626953296363354E-002,-2.776622213423252E-002,-4.415707290172577E-001,8.878936767578125E-001,1.626953296363354E-002,-2.776622213423252E-002,-4.415707290172577E-001,8.878936767578125E-001,
1.409533333333334E+009,1.482517574913800E-003,-1.011174079030752E-002,-4.131826758384705E-001,9.025921225547791E-001,1.482517574913800E-003,-1.011174079030752E-002,-4.131826758384705E-001,9.025921225547791E-001,
1.417900000000000E+009,7.149854791350663E-004,1.307953987270594E-002,-3.936046063899994E-001,8.968543410301209E-001,7.149854791350663E-004,1.307953987270594E-002,-3.936046063899994E-001,8.968543410301209E-001,
1.426266666666667E+009,1.033371593803167E-002,3.067944571375847E-002,-3.573570251464844E-001,9.261494874954224E-001,1.033371593803167E-002,3.067944571375847E-002,-3.573570251464844E-001,9.261494874954224E-001,
1.434633333333334E+009,3.029528260231018E-002,3.956918790936470E-002,-3.484236598014832E-001,9.205139875411987E-001,3.029528260231018E-002,3.956918790936470E-002,-3.484236598014832E-001,9.205139875411987E-001,
1.443000000000000E+009,5.147093161940575E-002,3.752740100026131E-002,-3.238318264484406E-001,9.295139908790588E-001,5.147093161940575E-002,3.752740100026131E-002,-3.238318264484406E-001,9.295139908790588E-001,
1.451366666666667E+009,6.869692355394363E-002,2.261569537222385E-002,-2.971108555793762E-001,9.293990135192871E-001,6.869692355394363E-002,2.261569537222385E-002,-2.971108555793762E-001,9.293990135192871E-001,
1.459733333333334E+009,7.680338621139526E-002,2.376661868765950E-003,-2.723073065280914E-001,9.579193592071533E-001,7.680338621139526E-002,2.376661868765950E-003,-2.723073065280914E-001,9.579193592071533E-001,
