% Version 1.00
%
%freq[Hz],re:Trc1_S11,im:Trc1_S11,re:Trc2_S21,im:Trc2_S21,re:Trc3_S11,im:Trc3_S11,re:Trc4_S21,im:Trc4_S21,
6.900000000000000E+008,-4.772057384252548E-002,3.712211921811104E-002,-5.021296143531799E-001,-8.435903787612915E-001,-4.772057384252548E-002,3.712211921811104E-002,-5.021296143531799E-001,-8.435903787612915E-001,
6.983666666666666E+008,-3.991048410534859E-002,3.794597461819649E-002,-5.275420546531677E-001,-8.328107595443726E-001,-3.991048410534859E-002,3.794597461819649E-002,-5.275420546531677E-001,-8.328107595443726E-001,
7.067333333333334E+008,-3.414656594395638E-002,3.360836952924728E-002,-5.500110983848572E-001,-8.072766661643982E-001,-3.414656594395638E-002,3.360836952924728E-002,-5.500110983848572E-001,-8.072766661643982E-001,
7.151000000000000E+008,-3.376221656799316E-002,2.615556865930557E-002,-5.850178003311157E-001,-8.052541017532349E-001,-3.376221656799316E-002,2.615556865930557E-002,-5.850178003311157E-001,-8.052541017532349E-001,
7.234666666666666E+008,-3.566016629338265E-002,2.103203162550926E-002,-5.983936190605164E-001,-7.896523475646973E-001,-3.566016629338265E-002,2.103203162550926E-002,-5.983936190605164E-001,-7.896523475646973E-001,
7.318333333333334E+008,-4.289695248007774E-002,1.875188760459423E-002,-6.156059503555298E-001,-7.721534371376038E-001,-4.289695248007774E-002,1.875188760459423E-002,-6.156059503555298E-001,-7.721534371376038E-001,
7.402000000000000E+008,-4.889206960797310E-002,2.069622091948986E-002,-6.260329484939575E-001,-7.472200989723206E-001,-4.889206960797310E-002,2.069622091948986E-002,-6.260329484939575E-001,-7.472200989723206E-001,
7.485666666666666E+008,-5.405833944678307E-002,2.758143097162247E-002,-6.558157205581665E-001,-7.340338826179504E-001,-5.405833944678307E-002,2.758143097162247E-002,-6.558157205581665E-001,-7.340338826179504E-001,
7.569333333333334E+008,-5.772566422820091E-002,3.729931637644768E-002,-6.739315986633301E-001,-7.206094264984131E-001,-5.772566422820091E-002,3.729931637644768E-002,-6.739315986633301E-001,-7.206094264984131E-001,
7.653000000000000E+008,-5.222742259502411E-002,4.615981876850128E-002,-6.813575625419617E-001,-7.014378309249878E-001,-5.222742259502411E-002,4.615981876850128E-002,-6.813575625419617E-001,-7.014378309249878E-001,
7.736666666666666E+008,-4.589536786079407E-002,5.284844711422920E-002,-6.941324472427368E-001,-6.976311802864075E-001,-4.589536786079407E-002,5.284844711422920E-002,-6.941324472427368E-001,-6.976311802864075E-001,
7.820333333333334E+008,-3.721196204423904E-002,5.697649344801903E-002,-7.271971106529236E-001,-6.693011522293091E-001,-3.721196204423904E-002,5.697649344801903E-002,-7.271971106529236E-001,-6.693011522293091E-001,
7.904000000000000E+008,-2.739554829895496E-002,5.611388012766838E-002,-7.361325621604919E-001,-6.510876417160034E-001,-2.739554829895496E-002,5.611388012766838E-002,-7.361325621604919E-001,-6.510876417160034E-001,
7.987666666666666E+008,-2.320738136768341E-002,5.108200013637543E-002,-7.414160966873169E-001,-6.352511048316956E-001,-2.320738136768341E-002,5.108200013637543E-002,-7.414160966873169E-001,-6.352511048316956E-001,
8.071333333333334E+008,-2.133722603321075E-002,4.491337388753891E-002,-7.676568031311035E-001,-6.034748554229736E-001,-2.133722603321075E-002,4.491337388753891E-002,-7.676568031311035E-001,-6.034748554229736E-001,
8.155000000000000E+008,-2.427089400589466E-002,3.806796297430992E-002,-7.940821051597595E-001,-5.922425985336304E-001,-2.427089400589466E-002,3.806796297430992E-002,-7.940821051597595E-001,-5.922425985336304E-001,
8.238666666666666E+008,-3.085510432720184E-002,3.618638589978218E-002,-8.002679347991943E-001,-5.690235495567322E-001,-3.085510432720184E-002,3.618638589978218E-002,-8.002679347991943E-001,-5.690235495567322E-001,
8.322333333333334E+008,-3.625389188528061E-002,3.766645118594170E-002,-8.094115257263184E-001,-5.505987405776978E-001,-3.625389188528061E-002,3.766645118594170E-002,-8.094115257263184E-001,-5.505987405776978E-001,
8.406000000000000E+008,-4.078331217169762E-002,4.094715043902397E-002,-8.214100599288940E-001,-5.282154679298401E-001,-4.078331217169762E-002,4.094715043902397E-002,-8.214100599288940E-001,-5.282154679298401E-001,
8.489666666666668E+008,-4.200824722647667E-002,5.214706808328629E-002,-8.330389261245728E-001,-4.989297986030579E-001,-4.200824722647667E-002,5.214706808328629E-002,-8.330389261245728E-001,-4.989297986030579E-001,
8.573333333333334E+008,-3.968731686472893E-002,5.999800190329552E-002,-8.348405361175537E-001,-4.687585234642029E-001,-3.968731686472893E-002,5.999800190329552E-002,-8.348405361175537E-001,-4.687585234642029E-001,
8.657000000000000E+008,-3.413020446896553E-002,6.776656210422516E-002,-8.628792166709900E-001,-4.727752804756165E-001,-3.413020446896553E-002,6.776656210422516E-002,-8.628792166709900E-001,-4.727752804756165E-001,
8.740666666666668E+008,-2.491049095988274E-002,7.303352653980255E-002,-8.687672019004822E-001,-4.479481875896454E-001,-2.491049095988274E-002,7.303352653980255E-002,-8.687672019004822E-001,-4.479481875896454E-001,
8.824333333333334E+008,-1.658867672085762E-002,7.460960000753403E-002,-8.870342969894409E-001,-4.237920343875885E-001,-1.658867672085762E-002,7.460960000753403E-002,-8.870342969894409E-001,-4.237920343875885E-001,
8.908000000000000E+008,-8.498338982462883E-003,7.123779505491257E-002,-9.006537795066834E-001,-4.063086211681366E-001,-8.498338982462883E-003,7.123779505491257E-002,-9.006537795066834E-001,-4.063086211681366E-001,
8.991666666666668E+008,-3.087165765464306E-003,6.534366309642792E-002,-9.006454944610596E-001,-3.794035613536835E-001,-3.087165765464306E-003,6.534366309642792E-002,-9.006454944610596E-001,-3.794035613536835E-001,
9.075333333333334E+008,-2.722428645938635E-003,5.797784775495529E-002,-9.144715666770935E-001,-3.541211783885956E-001,-2.722428645938635E-003,5.797784775495529E-002,-9.144715666770935E-001,-3.541211783885956E-001,
9.159000000000000E+008,-5.609050858765841E-003,5.232724547386169E-002,-9.354476332664490E-001,-3.292421400547028E-001,-5.609050858765841E-003,5.232724547386169E-002,-9.354476332664490E-001,-3.292421400547028E-001,
9.242666666666668E+008,-1.223388873040676E-002,5.258091166615486E-002,-9.268659353256226E-001,-3.074318170547485E-001,-1.223388873040676E-002,5.258091166615486E-002,-9.268659353256226E-001,-3.074318170547485E-001,
9.326333333333334E+008,-1.711332798004150E-002,5.475735291838646E-002,-9.429408907890320E-001,-2.926048636436462E-001,-1.711332798004150E-002,5.475735291838646E-002,-9.429408907890320E-001,-2.926048636436462E-001,
9.410000000000000E+008,-2.088139578700066E-002,5.893826112151146E-002,-9.522650241851807E-001,-2.573400735855103E-001,-2.088139578700066E-002,5.893826112151146E-002,-9.522650241851807E-001,-2.573400735855103E-001,
9.493666666666668E+008,-2.196739055216312E-002,6.801263242959976E-002,-9.570997357368469E-001,-2.266566008329392E-001,-2.196739055216312E-002,6.801263242959976E-002,-9.570997357368469E-001,-2.266566008329392E-001,
9.577333333333334E+008,-1.798260584473610E-002,7.755963504314423E-002,-9.626049399375916E-001,-2.130668461322784E-001,-1.798260584473610E-002,7.755963504314423E-002,-9.626049399375916E-001,-2.130668461322784E-001,
9.661000000000000E+008,-8.903002366423607E-003,8.396962285041809E-002,-9.634028673171997E-001,-1.714962422847748E-001,-8.903002366423607E-003,8.396962285041809E-002,-9.634028673171997E-001,-1.714962422847748E-001,
9.744666666666668E+008,2.049630042165518E-003,8.394152671098709E-002,-9.610497355461121E-001,-1.612998247146606E-001,2.049630042165518E-003,8.394152671098709E-002,-9.610497355461121E-001,-1.612998247146606E-001,
9.828333333333334E+008,1.134931854903698E-002,8.488540351390839E-002,-9.765726923942566E-001,-1.416782587766647E-001,1.134931854903698E-002,8.488540351390839E-002,-9.765726923942566E-001,-1.416782587766647E-001,
9.912000000000000E+008,2.181290648877621E-002,7.849571108818054E-002,-9.737783074378967E-001,-1.198155656456947E-001,2.181290648877621E-002,7.849571108818054E-002,-9.737783074378967E-001,-1.198155656456947E-001,
9.995666666666668E+008,2.545820921659470E-002,7.083579152822495E-002,-9.859221577644348E-001,-8.278863877058029E-002,2.545820921659470E-002,7.083579152822495E-002,-9.859221577644348E-001,-8.278863877058029E-002,
1.007933333333333E+009,2.893326058983803E-002,6.137051805853844E-002,-9.992542862892151E-001,-6.557311862707138E-002,2.893326058983803E-002,6.137051805853844E-002,-9.992542862892151E-001,-6.557311862707138E-002,
1.016300000000000E+009,2.277793549001217E-002,5.553101375699043E-002,-9.857982397079468E-001,-3.943534940481186E-002,2.277793549001217E-002,5.553101375699043E-002,-9.857982397079468E-001,-3.943534940481186E-002,
1.024666666666667E+009,1.513171475380659E-002,5.193698033690453E-002,-9.813123345375061E-001,-1.327277347445488E-002,1.513171475380659E-002,5.193698033690453E-002,-9.813123345375061E-001,-1.327277347445488E-002,
1.033033333333333E+009,1.035837829113007E-002,5.660996958613396E-002,-9.877004027366638E-001,1.315627340227366E-002,1.035837829113007E-002,5.660996958613396E-002,-9.877004027366638E-001,1.315627340227366E-002,
1.041400000000000E+009,3.998693544417620E-003,6.150558218359947E-002,-9.875284433364868E-001,3.410334512591362E-002,3.998693544417620E-003,6.150558218359947E-002,-9.875284433364868E-001,3.410334512591362E-002,
1.049766666666667E+009,7.581684272736311E-003,7.055661827325821E-002,-9.725683927536011E-001,6.969398260116577E-002,7.581684272736311E-003,7.055661827325821E-002,-9.725683927536011E-001,6.969398260116577E-002,
1.058133333333333E+009,1.222317200154066E-002,7.895597070455551E-002,-9.737414717674255E-001,9.143621474504471E-002,1.222317200154066E-002,7.895597070455551E-002,-9.737414717674255E-001,9.143621474504471E-002,
1.066500000000000E+009,2.374725043773651E-002,8.250383287668228E-002,-9.878103137016296E-001,1.250342130661011E-001,2.374725043773651E-002,8.250383287668228E-002,-9.878103137016296E-001,1.250342130661011E-001,
1.074866666666667E+009,3.748733177781105E-002,8.066927641630173E-002,-9.813352823257446E-001,1.453249901533127E-001,3.748733177781105E-002,8.066927641630173E-002,-9.813352823257446E-001,1.453249901533127E-001,
1.083233333333334E+009,4.617002606391907E-002,7.230060547590256E-002,-9.647931456565857E-001,1.659043282270432E-001,4.617002606391907E-002,7.230060547590256E-002,-9.647931456565857E-001,1.659043282270432E-001,
1.091600000000000E+009,5.260264128446579E-002,6.159661710262299E-002,-9.474120140075684E-001,1.849918216466904E-001,5.260264128446579E-002,6.159661710262299E-002,-9.474120140075684E-001,1.849918216466904E-001,
1.099966666666667E+009,5.155709758400917E-002,4.819801077246666E-002,-9.424043893814087E-001,2.229140400886536E-001,5.155709758400917E-002,4.819801077246666E-002,-9.424043893814087E-001,2.229140400886536E-001,
1.108333333333334E+009,4.342640191316605E-002,4.052015393972397E-002,-9.423649907112122E-001,2.312868535518646E-001,4.342640191316605E-002,4.052015393972397E-002,-9.423649907112122E-001,2.312868535518646E-001,
1.116700000000000E+009,3.313195332884789E-002,3.757354989647865E-002,-9.348763227462769E-001,2.644439637660980E-001,3.313195332884789E-002,3.757354989647865E-002,-9.348763227462769E-001,2.644439637660980E-001,
1.125066666666667E+009,2.234421297907829E-002,4.228801280260086E-002,-9.354391098022461E-001,2.814463376998901E-001,2.234421297907829E-002,4.228801280260086E-002,-9.354391098022461E-001,2.814463376998901E-001,
1.133433333333334E+009,1.496647857129574E-002,5.192194133996964E-002,-9.320743680000305E-001,3.259448707103729E-001,1.496647857129574E-002,5.192194133996964E-002,-9.320743680000305E-001,3.259448707103729E-001,
1.141800000000000E+009,1.418594270944595E-002,6.484443694353104E-002,-9.085245728492737E-001,3.398782014846802E-001,1.418594270944595E-002,6.484443694353104E-002,-9.085245728492737E-001,3.398782014846802E-001,
1.150166666666667E+009,2.344725839793682E-002,7.843266427516937E-002,-8.996850848197937E-001,3.407482504844666E-001,2.344725839793682E-002,7.843266427516937E-002,-8.996850848197937E-001,3.407482504844666E-001,
1.158533333333334E+009,3.957444056868553E-002,8.468378335237503E-002,-8.917290568351746E-001,3.804022073745728E-001,3.957444056868553E-002,8.468378335237503E-002,-8.917290568351746E-001,3.804022073745728E-001,
1.166900000000000E+009,5.868970602750778E-002,8.385024964809418E-002,-8.753986954689026E-001,4.000515639781952E-001,5.868970602750778E-002,8.385024964809418E-002,-8.753986954689026E-001,4.000515639781952E-001,
1.175266666666667E+009,7.430586963891983E-002,7.247103005647659E-002,-8.693118691444397E-001,4.291144311428070E-001,7.430586963891983E-002,7.247103005647659E-002,-8.693118691444397E-001,4.291144311428070E-001,
1.183633333333334E+009,8.598788082599640E-002,5.761947110295296E-002,-8.678389191627502E-001,4.406864643096924E-001,8.598788082599640E-002,5.761947110295296E-002,-8.678389191627502E-001,4.406864643096924E-001,
1.192000000000000E+009,8.578309416770935E-002,3.909807279706001E-002,-8.554047346115112E-001,4.629108011722565E-001,8.578309416770935E-002,3.909807279706001E-002,-8.554047346115112E-001,4.629108011722565E-001,
1.200366666666667E+009,7.635958492755890E-002,2.311334758996964E-002,-8.429769873619080E-001,4.841887652873993E-001,7.635958492755890E-002,2.311334758996964E-002,-8.429769873619080E-001,4.841887652873993E-001,
1.208733333333334E+009,6.169179454445839E-002,1.479294616729021E-002,-8.356491923332214E-001,5.261099934577942E-001,6.169179454445839E-002,1.479294616729021E-002,-8.356491923332214E-001,5.261099934577942E-001,
1.217100000000000E+009,4.625448212027550E-002,1.636129803955555E-002,-8.314400315284729E-001,5.362364649772644E-001,4.625448212027550E-002,1.636129803955555E-002,-8.314400315284729E-001,5.362364649772644E-001,
1.225466666666667E+009,3.463627025485039E-002,2.747534774243832E-002,-7.989235520362854E-001,5.605266094207764E-001,3.463627025485039E-002,2.747534774243832E-002,-7.989235520362854E-001,5.605266094207764E-001,
1.233833333333334E+009,3.083234652876854E-002,4.371798038482666E-002,-7.934907674789429E-001,5.720340609550476E-001,3.083234652876854E-002,4.371798038482666E-002,-7.934907674789429E-001,5.720340609550476E-001,
1.242200000000000E+009,3.961485251784325E-002,5.720862746238709E-002,-7.677814960479736E-001,6.046313643455505E-001,3.961485251784325E-002,5.720862746238709E-002,-7.677814960479736E-001,6.046313643455505E-001,
1.250566666666667E+009,5.285128578543663E-002,6.617552787065506E-002,-7.460891604423523E-001,6.091661453247070E-001,5.285128578543663E-002,6.617552787065506E-002,-7.460891604423523E-001,6.091661453247070E-001,
1.258933333333334E+009,7.296991348266602E-002,6.527989357709885E-002,-7.405925393104553E-001,6.309669017791748E-001,7.296991348266602E-002,6.527989357709885E-002,-7.405925393104553E-001,6.309669017791748E-001,
1.267300000000000E+009,9.206145256757736E-002,5.372004210948944E-002,-7.217504382133484E-001,6.446599364280701E-001,9.206145256757736E-002,5.372004210948944E-002,-7.217504382133484E-001,6.446599364280701E-001,
1.275666666666667E+009,1.006287112832069E-001,3.533139824867249E-002,-7.096932530403137E-001,6.523644924163818E-001,1.006287112832069E-001,3.533139824867249E-002,-7.096932530403137E-001,6.523644924163818E-001,
1.284033333333334E+009,1.023702248930931E-001,1.425876375287771E-002,-6.934071779251099E-001,6.941710114479065E-001,1.023702248930931E-001,1.425876375287771E-002,-6.934071779251099E-001,6.941710114479065E-001,
1.292400000000000E+009,9.215365350246429E-002,-3.997567109763622E-003,-6.818676590919495E-001,6.979600787162781E-001,9.215365350246429E-002,-3.997567109763622E-003,-6.818676590919495E-001,6.979600787162781E-001,
1.300766666666667E+009,7.303743809461594E-002,-1.196910813450813E-002,-6.593843698501587E-001,7.221101522445679E-001,7.303743809461594E-002,-1.196910813450813E-002,-6.593843698501587E-001,7.221101522445679E-001,
1.309133333333334E+009,5.311540886759758E-002,-1.031103730201721E-002,-6.343668103218079E-001,7.359689474105835E-001,5.311540886759758E-002,-1.031103730201721E-002,-6.343668103218079E-001,7.359689474105835E-001,
1.317500000000000E+009,3.930945694446564E-002,1.890033483505249E-003,-6.212969422340393E-001,7.665129899978638E-001,3.930945694446564E-002,1.890033483505249E-003,-6.212969422340393E-001,7.665129899978638E-001,
1.325866666666667E+009,3.537659347057343E-002,1.870032213628292E-002,-6.014107465744019E-001,7.810021638870239E-001,3.537659347057343E-002,1.870032213628292E-002,-6.014107465744019E-001,7.810021638870239E-001,
1.334233333333334E+009,4.396324977278709E-002,3.562616556882858E-002,-5.826995372772217E-001,7.865420579910278E-001,4.396324977278709E-002,3.562616556882858E-002,-5.826995372772217E-001,7.865420579910278E-001,
1.342600000000000E+009,5.959023162722588E-002,4.366352409124374E-002,-5.649845004081726E-001,8.030217289924622E-001,5.959023162722588E-002,4.366352409124374E-002,-5.649845004081726E-001,8.030217289924622E-001,
1.350966666666667E+009,7.934900373220444E-002,3.974052146077156E-002,-5.387206077575684E-001,8.144371509552002E-001,7.934900373220444E-002,3.974052146077156E-002,-5.387206077575684E-001,8.144371509552002E-001,
1.359333333333334E+009,9.367633610963821E-002,2.538933604955673E-002,-5.259832143783569E-001,8.137094974517822E-001,9.367633610963821E-002,2.538933604955673E-002,-5.259832143783569E-001,8.137094974517822E-001,
1.367700000000000E+009,9.896165877580643E-002,5.244984757155180E-003,-4.928090572357178E-001,8.321377635002136E-001,9.896165877580643E-002,5.244984757155180E-003,-4.928090572357178E-001,8.321377635002136E-001,
1.376066666666667E+009,9.489708393812180E-002,-1.699659228324890E-002,-4.778765141963959E-001,8.413150310516357E-001,9.489708393812180E-002,-1.699659228324890E-002,-4.778765141963959E-001,8.413150310516357E-001,
1.384433333333334E+009,7.789248973131180E-002,-3.196302801370621E-002,-4.627985954284668E-001,8.719792962074280E-001,7.789248973131180E-002,-3.196302801370621E-002,-4.627985954284668E-001,8.719792962074280E-001,
1.392800000000000E+009,5.772102996706963E-002,-3.388214483857155E-002,-4.417513310909271E-001,8.802670836448669E-001,5.772102996706963E-002,-3.388214483857155E-002,-4.417513310909271E-001,8.802670836448669E-001,
1.401166666666667E+009,3.803241252899170E-002,-2.620628662407398E-002,-4.147181212902069E-001,8.875125050544739E-001,3.803241252899170E-002,-2.620628662407398E-002,-4.147181212902069E-001,8.875125050544739E-001,
1.409533333333334E+009,2.552071027457714E-002,-8.802688680589199E-003,-3.851639032363892E-001,9.018747806549072E-001,2.552071027457714E-002,-8.802688680589199E-003,-3.851639032363892E-001,9.018747806549072E-001,
1.417900000000000E+009,2.726716548204422E-002,1.404084917157888E-002,-3.654073774814606E-001,8.974550962448120E-001,2.726716548204422E-002,1.404084917157888E-002,-3.654073774814606E-001,8.974550962448120E-001,
1.426266666666667E+009,3.843110054731369E-002,3.024567477405071E-002,-3.282811343669891E-001,9.230775833129883E-001,3.843110054731369E-002,3.024567477405071E-002,-3.282811343669891E-001,9.230775833129883E-001,
1.434633333333334E+009,5.883748084306717E-002,3.755683451890945E-002,-3.184601962566376E-001,9.166646599769592E-001,5.883748084306717E-002,3.755683451890945E-002,-3.184601962566376E-001,9.166646599769592E-001,
1.443000000000000E+009,7.885552942752838E-002,3.369231522083283E-002,-2.942337989807129E-001,9.237585067749023E-001,7.885552942752838E-002,3.369231522083283E-002,-2.942337989807129E-001,9.237585067749023E-001,
1.451366666666667E+009,9.399944543838501E-002,1.728748343884945E-002,-2.689202725887299E-001,9.237459897994995E-001,9.399944543838501E-002,1.728748343884945E-002,-2.689202725887299E-001,9.237459897994995E-001,
1.459733333333334E+009,9.978432208299637E-002,-3.541732439771295E-003,-2.437735646963120E-001,9.499651789665222E-001,9.978432208299637E-002,-3.541732439771295E-003,-2.437735646963120E-001,9.499651789665222E-001,
