% Version 1.00
%
%freq[Hz],re:Trc1_S11,im:Trc1_S11,re:Trc2_S21,im:Trc2_S21,re:Trc3_S11,im:Trc3_S11,re:Trc4_S21,im:Trc4_S21,
6.900000000000000E+008,-5.964069068431854E-002,1.341621275059879E-003,-4.616329967975617E-001,-8.507171869277954E-001,-5.964069068431854E-002,1.341621275059879E-003,-4.616329967975617E-001,-8.507171869277954E-001,
6.983666666666666E+008,-5.136715620756149E-002,3.316544694826007E-003,-4.904422163963318E-001,-8.387001752853394E-001,-5.136715620756149E-002,3.316544694826007E-003,-4.904422163963318E-001,-8.387001752853394E-001,
7.067333333333334E+008,-4.595679789781570E-002,-4.816157452296466E-004,-5.112255215644836E-001,-8.144627213478088E-001,-4.595679789781570E-002,-4.816157452296466E-004,-5.112255215644836E-001,-8.144627213478088E-001,
7.151000000000000E+008,-4.590380936861038E-002,-7.186333183199167E-003,-5.445429086685181E-001,-8.155139684677124E-001,-4.590380936861038E-002,-7.186333183199167E-003,-5.445429086685181E-001,-8.155139684677124E-001,
7.234666666666666E+008,-4.774347320199013E-002,-1.211267989128828E-002,-5.587964057922363E-001,-8.036344647407532E-001,-4.774347320199013E-002,-1.211267989128828E-002,-5.587964057922363E-001,-8.036344647407532E-001,
7.318333333333334E+008,-5.451987683773041E-002,-1.385185681283474E-002,-5.761373639106751E-001,-7.781998515129089E-001,-5.451987683773041E-002,-1.385185681283474E-002,-5.761373639106751E-001,-7.781998515129089E-001,
7.402000000000000E+008,-6.077834218740463E-002,-1.138890348374844E-002,-5.903185606002808E-001,-7.602248787879944E-001,-6.077834218740463E-002,-1.138890348374844E-002,-5.903185606002808E-001,-7.602248787879944E-001,
7.485666666666666E+008,-6.720655411481857E-002,-5.202367901802063E-003,-6.198685765266419E-001,-7.508684992790222E-001,-6.720655411481857E-002,-5.202367901802063E-003,-6.198685765266419E-001,-7.508684992790222E-001,
7.569333333333334E+008,-7.176791876554489E-002,4.304671194404364E-003,-6.349976658821106E-001,-7.333948016166687E-001,-7.176791876554489E-002,4.304671194404364E-003,-6.349976658821106E-001,-7.333948016166687E-001,
7.653000000000000E+008,-6.739178299903870E-002,1.390326954424381E-002,-6.486710906028748E-001,-7.158610224723816E-001,-6.739178299903870E-002,1.390326954424381E-002,-6.486710906028748E-001,-7.158610224723816E-001,
7.736666666666666E+008,-6.212035194039345E-002,2.065573632717133E-002,-6.579875349998474E-001,-7.123419642448425E-001,-6.212035194039345E-002,2.065573632717133E-002,-6.579875349998474E-001,-7.123419642448425E-001,
7.820333333333334E+008,-5.359315872192383E-002,2.503575943410397E-002,-6.922422051429749E-001,-6.863589286804199E-001,-5.359315872192383E-002,2.503575943410397E-002,-6.922422051429749E-001,-6.863589286804199E-001,
7.904000000000000E+008,-4.393934458494186E-002,2.558015473186970E-002,-7.096980214118958E-001,-6.735768914222717E-001,-4.393934458494186E-002,2.558015473186970E-002,-7.096980214118958E-001,-6.735768914222717E-001,
7.987666666666666E+008,-4.064924269914627E-002,2.135147154331207E-002,-7.097944021224976E-001,-6.522285342216492E-001,-4.064924269914627E-002,2.135147154331207E-002,-7.097944021224976E-001,-6.522285342216492E-001,
8.071333333333334E+008,-3.826741501688957E-002,1.503652520477772E-002,-7.317116856575012E-001,-6.257559657096863E-001,-3.826741501688957E-002,1.503652520477772E-002,-7.317116856575012E-001,-6.257559657096863E-001,
8.155000000000000E+008,-4.059248417615891E-002,8.900910615921021E-003,-7.643856406211853E-001,-6.148434281349182E-001,-4.059248417615891E-002,8.900910615921021E-003,-7.643856406211853E-001,-6.148434281349182E-001,
8.238666666666666E+008,-4.753188788890839E-002,7.105506956577301E-003,-7.688586115837097E-001,-5.929995179176331E-001,-4.753188788890839E-002,7.105506956577301E-003,-7.688586115837097E-001,-5.929995179176331E-001,
8.322333333333334E+008,-5.287879705429077E-002,8.768186904489994E-003,-7.748464345932007E-001,-5.769317746162415E-001,-5.287879705429077E-002,8.768186904489994E-003,-7.748464345932007E-001,-5.769317746162415E-001,
8.406000000000000E+008,-5.723660439252853E-002,1.149914972484112E-002,-7.898600101470947E-001,-5.509533286094666E-001,-5.723660439252853E-002,1.149914972484112E-002,-7.898600101470947E-001,-5.509533286094666E-001,
8.489666666666668E+008,-6.042532250285149E-002,2.254593744874001E-002,-8.040452003479004E-001,-5.240370035171509E-001,-6.042532250285149E-002,2.254593744874001E-002,-8.040452003479004E-001,-5.240370035171509E-001,
8.573333333333334E+008,-5.889394879341126E-002,3.102379105985165E-002,-8.024030923843384E-001,-4.975561201572418E-001,-5.889394879341126E-002,3.102379105985165E-002,-8.024030923843384E-001,-4.975561201572418E-001,
8.657000000000000E+008,-5.469486489892006E-002,3.922465443611145E-002,-8.339258432388306E-001,-4.978578686714172E-001,-5.469486489892006E-002,3.922465443611145E-002,-8.339258432388306E-001,-4.978578686714172E-001,
8.740666666666668E+008,-4.647556692361832E-002,4.470872133970261E-002,-8.398018479347229E-001,-4.747235476970673E-001,-4.647556692361832E-002,4.470872133970261E-002,-8.398018479347229E-001,-4.747235476970673E-001,
8.824333333333334E+008,-3.822153806686401E-002,4.707519710063934E-002,-8.594196438789368E-001,-4.520049989223480E-001,-3.822153806686401E-002,4.707519710063934E-002,-8.594196438789368E-001,-4.520049989223480E-001,
8.908000000000000E+008,-3.040326386690140E-002,4.430406540632248E-002,-8.743827342987061E-001,-4.361528754234314E-001,-3.040326386690140E-002,4.430406540632248E-002,-8.743827342987061E-001,-4.361528754234314E-001,
8.991666666666668E+008,-2.454598434269428E-002,3.974144160747528E-002,-8.769220113754273E-001,-4.099548757076263E-001,-2.454598434269428E-002,3.974144160747528E-002,-8.769220113754273E-001,-4.099548757076263E-001,
9.075333333333334E+008,-2.498511970043182E-002,3.293231129646301E-002,-8.931036591529846E-001,-3.904601335525513E-001,-2.498511970043182E-002,3.293231129646301E-002,-8.931036591529846E-001,-3.904601335525513E-001,
9.159000000000000E+008,-2.643165364861488E-002,2.710044756531715E-002,-9.142103791236877E-001,-3.615838587284088E-001,-2.643165364861488E-002,2.710044756531715E-002,-9.142103791236877E-001,-3.615838587284088E-001,
9.242666666666668E+008,-3.317256644368172E-002,2.770549431443214E-002,-9.062626957893372E-001,-3.416584134101868E-001,-3.317256644368172E-002,2.770549431443214E-002,-9.062626957893372E-001,-3.416584134101868E-001,
9.326333333333334E+008,-3.825250640511513E-002,2.937514148652554E-002,-9.228748083114624E-001,-3.264850676059723E-001,-3.825250640511513E-002,2.937514148652554E-002,-9.228748083114624E-001,-3.264850676059723E-001,
9.410000000000000E+008,-4.299771785736084E-002,3.399157151579857E-002,-9.385629296302795E-001,-2.934834659099579E-001,-4.299771785736084E-002,3.399157151579857E-002,-9.385629296302795E-001,-2.934834659099579E-001,
9.493666666666668E+008,-4.509839415550232E-002,4.209136217832565E-002,-9.370139241218567E-001,-2.619040310382843E-001,-4.509839415550232E-002,4.209136217832565E-002,-9.370139241218567E-001,-2.619040310382843E-001,
9.577333333333334E+008,-4.199745133519173E-002,5.299983546137810E-002,-9.446831941604614E-001,-2.526333332061768E-001,-4.199745133519173E-002,5.299983546137810E-002,-9.446831941604614E-001,-2.526333332061768E-001,
9.661000000000000E+008,-3.431096300482750E-002,5.975117534399033E-002,-9.502102732658386E-001,-2.051641941070557E-001,-3.431096300482750E-002,5.975117534399033E-002,-9.502102732658386E-001,-2.051641941070557E-001,
9.744666666666668E+008,-2.363850362598896E-002,6.159899756312370E-002,-9.479357004165649E-001,-1.985913217067719E-001,-2.363850362598896E-002,6.159899756312370E-002,-9.479357004165649E-001,-1.985913217067719E-001,
9.828333333333334E+008,-1.460787001997232E-002,6.381913274526596E-002,-9.623100161552429E-001,-1.814762353897095E-001,-1.460787001997232E-002,6.381913274526596E-002,-9.623100161552429E-001,-1.814762353897095E-001,
9.912000000000000E+008,-4.302191082388163E-003,5.768838152289391E-002,-9.614239931106567E-001,-1.587803065776825E-001,-4.302191082388163E-003,5.768838152289391E-002,-9.614239931106567E-001,-1.587803065776825E-001,
9.995666666666668E+008,-1.342641917290166E-004,5.073324963450432E-002,-9.782533645629883E-001,-1.243329271674156E-001,-1.342641917290166E-004,5.073324963450432E-002,-9.782533645629883E-001,-1.243329271674156E-001,
1.007933333333333E+009,3.930590581148863E-003,4.248472303152084E-002,-9.949892759323120E-001,-1.045226827263832E-001,3.930590581148863E-003,4.248472303152084E-002,-9.949892759323120E-001,-1.045226827263832E-001,
1.016300000000000E+009,-1.299223047681153E-003,3.662965819239616E-002,-9.776474237442017E-001,-8.003912121057510E-002,-1.299223047681153E-003,3.662965819239616E-002,-9.776474237442017E-001,-8.003912121057510E-002,
1.024666666666667E+009,-9.175048209726811E-003,3.229538723826408E-002,-9.763629436492920E-001,-5.386485159397125E-002,-9.175048209726811E-003,3.229538723826408E-002,-9.763629436492920E-001,-5.386485159397125E-002,
1.033033333333333E+009,-1.407933421432972E-002,3.691606968641281E-002,-9.829901456832886E-001,-2.326156571507454E-002,-1.407933421432972E-002,3.691606968641281E-002,-9.829901456832886E-001,-2.326156571507454E-002,
1.041400000000000E+009,-2.136472985148430E-002,4.129369556903839E-002,-9.848008155822754E-001,-9.438551962375641E-003,-2.136472985148430E-002,4.129369556903839E-002,-9.848008155822754E-001,-9.438551962375641E-003,
1.049766666666667E+009,-1.849411800503731E-002,5.130518600344658E-002,-9.694379568099976E-001,2.994802594184876E-002,-1.849411800503731E-002,5.130518600344658E-002,-9.694379568099976E-001,2.994802594184876E-002,
1.058133333333333E+009,-1.463564764708281E-002,6.049733236432076E-002,-9.732257723808289E-001,5.158999562263489E-002,-1.463564764708281E-002,6.049733236432076E-002,-9.732257723808289E-001,5.158999562263489E-002,
1.066500000000000E+009,-3.949158359318972E-003,6.592398881912231E-002,-9.900963902473450E-001,8.999683707952499E-002,-3.949158359318972E-003,6.592398881912231E-002,-9.900963902473450E-001,8.999683707952499E-002,
1.074866666666667E+009,9.542759507894516E-003,6.547650694847107E-002,-9.843699932098389E-001,1.080338507890701E-001,9.542759507894516E-003,6.547650694847107E-002,-9.843699932098389E-001,1.080338507890701E-001,
1.083233333333334E+009,1.908376440405846E-002,5.829965695738792E-002,-9.715972542762756E-001,1.257155984640122E-001,1.908376440405846E-002,5.829965695738792E-002,-9.715972542762756E-001,1.257155984640122E-001,
1.091600000000000E+009,2.588778361678124E-002,4.796417802572250E-002,-9.560381174087524E-001,1.489260792732239E-001,2.588778361678124E-002,4.796417802572250E-002,-9.560381174087524E-001,1.489260792732239E-001,
1.099966666666667E+009,2.605631202459335E-002,3.551219031214714E-002,-9.512834548950195E-001,1.868749707937241E-001,2.605631202459335E-002,3.551219031214714E-002,-9.512834548950195E-001,1.868749707937241E-001,
1.108333333333334E+009,1.866625249385834E-002,2.721204981207848E-002,-9.482978582382202E-001,1.917106360197067E-001,1.866625249385834E-002,2.721204981207848E-002,-9.482978582382202E-001,1.917106360197067E-001,
1.116700000000000E+009,8.941616863012314E-003,2.378351427614689E-002,-9.424775242805481E-001,2.296961694955826E-001,8.941616863012314E-003,2.378351427614689E-002,-9.424775242805481E-001,2.296961694955826E-001,
1.125066666666667E+009,-2.493581268936396E-003,2.776461653411388E-002,-9.466527104377747E-001,2.437674403190613E-001,-2.493581268936396E-003,2.776461653411388E-002,-9.466527104377747E-001,2.437674403190613E-001,
1.133433333333334E+009,-1.044168695807457E-002,3.706798329949379E-002,-9.436919093132019E-001,2.910017967224121E-001,-1.044168695807457E-002,3.706798329949379E-002,-9.436919093132019E-001,2.910017967224121E-001,
1.141800000000000E+009,-1.312892045825720E-002,5.051333457231522E-002,-9.199045300483704E-001,3.012937009334564E-001,-1.312892045825720E-002,5.051333457231522E-002,-9.199045300483704E-001,3.012937009334564E-001,
1.150166666666667E+009,-5.148775409907103E-003,6.503490358591080E-002,-9.126187562942505E-001,3.066167831420898E-001,-5.148775409907103E-003,6.503490358591080E-002,-9.126187562942505E-001,3.066167831420898E-001,
1.158533333333334E+009,9.911653585731983E-003,7.265383005142212E-002,-9.095702767372131E-001,3.450450003147125E-001,9.911653585731983E-003,7.265383005142212E-002,-9.095702767372131E-001,3.450450003147125E-001,
1.166900000000000E+009,2.890899777412415E-002,7.417230308055878E-002,-8.934621214866638E-001,3.662964701652527E-001,2.890899777412415E-002,7.417230308055878E-002,-8.934621214866638E-001,3.662964701652527E-001,
1.175266666666667E+009,4.551478102803230E-002,6.387657672166824E-002,-8.853938579559326E-001,3.966231048107147E-001,4.551478102803230E-002,6.387657672166824E-002,-8.853938579559326E-001,3.966231048107147E-001,
1.183633333333334E+009,5.867069587111473E-002,5.052807554602623E-002,-8.920437097549439E-001,4.097629487514496E-001,5.867069587111473E-002,5.052807554602623E-002,-8.920437097549439E-001,4.097629487514496E-001,
1.192000000000000E+009,5.947925150394440E-002,3.180266916751862E-002,-8.752216696739197E-001,4.303189516067505E-001,5.947925150394440E-002,3.180266916751862E-002,-8.752216696739197E-001,4.303189516067505E-001,
1.200366666666667E+009,5.125059932470322E-002,1.508130785077810E-002,-8.614990711212158E-001,4.515794813632965E-001,5.125059932470322E-002,1.508130785077810E-002,-8.614990711212158E-001,4.515794813632965E-001,
1.208733333333334E+009,3.741250932216644E-002,6.091743241995573E-003,-8.567324280738831E-001,4.939726293087006E-001,3.741250932216644E-002,6.091743241995573E-003,-8.567324280738831E-001,4.939726293087006E-001,
1.217100000000000E+009,2.143568731844425E-002,6.392352283000946E-003,-8.516147136688232E-001,5.018365383148193E-001,2.143568731844425E-002,6.392352283000946E-003,-8.516147136688232E-001,5.018365383148193E-001,
1.225466666666667E+009,8.730915375053883E-003,1.654326729476452E-002,-8.197320699691773E-001,5.315025448799133E-001,8.730915375053883E-003,1.654326729476452E-002,-8.197320699691773E-001,5.315025448799133E-001,
1.233833333333334E+009,3.587629878893495E-003,3.365488350391388E-002,-8.178638219833374E-001,5.404939651489258E-001,3.587629878893495E-003,3.365488350391388E-002,-8.178638219833374E-001,5.404939651489258E-001,
1.242200000000000E+009,1.071637216955423E-002,4.806593060493469E-002,-7.903413772583008E-001,5.776413083076477E-001,1.071637216955423E-002,4.806593060493469E-002,-7.903413772583008E-001,5.776413083076477E-001,
1.250566666666667E+009,2.304597385227680E-002,5.836222693324089E-002,-7.757180929183960E-001,5.778300762176514E-001,2.304597385227680E-002,5.836222693324089E-002,-7.757180929183960E-001,5.778300762176514E-001,
1.258933333333334E+009,4.313212260603905E-002,5.909005180001259E-002,-7.697914242744446E-001,6.037967801094055E-001,4.313212260603905E-002,5.909005180001259E-002,-7.697914242744446E-001,6.037967801094055E-001,
1.267300000000000E+009,6.258997321128845E-002,5.014008283615112E-002,-7.486718893051148E-001,6.181449890136719E-001,6.258997321128845E-002,5.014008283615112E-002,-7.486718893051148E-001,6.181449890136719E-001,
1.275666666666667E+009,7.298261672258377E-002,3.284210711717606E-002,-7.394170165061951E-001,6.298530697822571E-001,7.298261672258377E-002,3.284210711717606E-002,-7.394170165061951E-001,6.298530697822571E-001,
1.284033333333334E+009,7.590900361537933E-002,1.192944217473269E-002,-7.222046852111816E-001,6.690052747726440E-001,7.590900361537933E-002,1.192944217473269E-002,-7.222046852111816E-001,6.690052747726440E-001,
1.292400000000000E+009,6.709644198417664E-002,-7.755286991596222E-003,-7.123447060585022E-001,6.748255491256714E-001,6.709644198417664E-002,-7.755286991596222E-003,-7.123447060585022E-001,6.748255491256714E-001,
1.300766666666667E+009,4.821505025029182E-002,-1.665319688618183E-002,-6.881637573242188E-001,6.984471678733826E-001,4.821505025029182E-002,-1.665319688618183E-002,-6.881637573242188E-001,6.984471678733826E-001,
1.309133333333334E+009,2.857857197523117E-002,-1.681935228407383E-002,-6.628857851028442E-001,7.151380777359009E-001,2.857857197523117E-002,-1.681935228407383E-002,-6.628857851028442E-001,7.151380777359009E-001,
1.317500000000000E+009,1.315450668334961E-002,-4.672578070312738E-003,-6.549704670906067E-001,7.432639002799988E-001,1.315450668334961E-002,-4.672578070312738E-003,-6.549704670906067E-001,7.432639002799988E-001,
1.325866666666667E+009,8.102346211671829E-003,1.151681132614613E-002,-6.338539719581604E-001,7.610654234886169E-001,8.102346211671829E-003,1.151681132614613E-002,-6.338539719581604E-001,7.610654234886169E-001,
1.334233333333334E+009,1.495263911783695E-002,2.948799729347229E-002,-6.168479323387146E-001,7.649608254432678E-001,1.495263911783695E-002,2.948799729347229E-002,-6.168479323387146E-001,7.649608254432678E-001,
1.342600000000000E+009,2.955329976975918E-002,3.938871622085571E-002,-6.024531126022339E-001,7.837116718292236E-001,2.955329976975918E-002,3.938871622085571E-002,-6.024531126022339E-001,7.837116718292236E-001,
1.350966666666667E+009,4.912681132555008E-002,3.785785660147667E-002,-5.714342594146729E-001,7.963995933532715E-001,4.912681132555008E-002,3.785785660147667E-002,-5.714342594146729E-001,7.963995933532715E-001,
1.359333333333334E+009,6.425565481185913E-002,2.501130290329456E-002,-5.632961392402649E-001,7.971413135528565E-001,6.425565481185913E-002,2.501130290329456E-002,-5.632961392402649E-001,7.971413135528565E-001,
1.367700000000000E+009,7.085883617401123E-002,5.819631274789572E-003,-5.277153849601746E-001,8.202080726623535E-001,7.085883617401123E-002,5.819631274789572E-003,-5.277153849601746E-001,8.202080726623535E-001,
1.376066666666667E+009,6.845654547214508E-002,-1.703917980194092E-002,-5.113964676856995E-001,8.282780647277832E-001,6.845654547214508E-002,-1.703917980194092E-002,-5.113964676856995E-001,8.282780647277832E-001,
1.384433333333334E+009,5.229921266436577E-002,-3.308348357677460E-002,-4.956868290901184E-001,8.581607341766357E-001,5.229921266436577E-002,-3.308348357677460E-002,-4.956868290901184E-001,8.581607341766357E-001,
1.392800000000000E+009,3.225706145167351E-002,-3.613415360450745E-002,-4.747804999351502E-001,8.683757781982422E-001,3.225706145167351E-002,-3.613415360450745E-002,-4.747804999351502E-001,8.683757781982422E-001,
1.401166666666667E+009,1.127306744456291E-002,-3.016339987516403E-002,-4.499536752700806E-001,8.717278242111206E-001,1.127306744456291E-002,-3.016339987516403E-002,-4.499536752700806E-001,8.717278242111206E-001,
1.409533333333334E+009,-2.222820417955518E-003,-1.324173156172037E-002,-4.210668504238129E-001,8.884013295173645E-001,-2.222820417955518E-003,-1.324173156172037E-002,-4.210668504238129E-001,8.884013295173645E-001,
1.417900000000000E+009,-2.861368935555220E-003,1.021548453718424E-002,-4.030809402465820E-001,8.830407261848450E-001,-2.861368935555220E-003,1.021548453718424E-002,-4.030809402465820E-001,8.830407261848450E-001,
1.426266666666667E+009,6.993922404944897E-003,2.795461378991604E-002,-3.680517077445984E-001,9.151149392127991E-001,6.993922404944897E-003,2.795461378991604E-002,-3.680517077445984E-001,9.151149392127991E-001,
1.434633333333334E+009,2.680767141282558E-002,3.685039281845093E-002,-3.602538406848908E-001,9.075193405151367E-001,2.680767141282558E-002,3.685039281845093E-002,-3.602538406848908E-001,9.075193405151367E-001,
1.443000000000000E+009,4.666928574442864E-002,3.614898771047592E-002,-3.336705267429352E-001,9.166957736015320E-001,4.666928574442864E-002,3.614898771047592E-002,-3.336705267429352E-001,9.166957736015320E-001,
1.451366666666667E+009,6.287136673927307E-002,2.107939310371876E-002,-3.086576461791992E-001,9.203202724456787E-001,6.287136673927307E-002,2.107939310371876E-002,-3.086576461791992E-001,9.203202724456787E-001,
1.459733333333334E+009,7.058764249086380E-002,1.903498894535005E-003,-2.826393246650696E-001,9.432782530784607E-001,7.058764249086380E-002,1.903498894535005E-003,-2.826393246650696E-001,9.432782530784607E-001,
