% Version 1.00
%
%freq[Hz],re:Trc1_S11,im:Trc1_S11,re:Trc2_S21,im:Trc2_S21,re:Trc3_S11,im:Trc3_S11,re:Trc4_S21,im:Trc4_S21,
6.900000000000000E+008,-4.387292265892029E-002,2.436260133981705E-002,-4.965287148952484E-001,-8.343279957771301E-001,-4.387292265892029E-002,2.436260133981705E-002,-4.965287148952484E-001,-8.343279957771301E-001,
6.983666666666666E+008,-3.649452701210976E-002,2.514172904193401E-002,-5.219103693962097E-001,-8.282645344734192E-001,-3.649452701210976E-002,2.514172904193401E-002,-5.219103693962097E-001,-8.282645344734192E-001,
7.067333333333334E+008,-3.086380660533905E-002,2.072325721383095E-002,-5.447062253952026E-001,-8.003191947937012E-001,-3.086380660533905E-002,2.072325721383095E-002,-5.447062253952026E-001,-8.003191947937012E-001,
7.151000000000000E+008,-3.124318271875382E-002,1.317167934030294E-002,-5.789192914962769E-001,-7.973487973213196E-001,-3.124318271875382E-002,1.317167934030294E-002,-5.789192914962769E-001,-7.973487973213196E-001,
7.234666666666666E+008,-3.318706154823303E-002,8.102881722152233E-003,-5.926142334938049E-001,-7.834146022796631E-001,-3.318706154823303E-002,8.102881722152233E-003,-5.926142334938049E-001,-7.834146022796631E-001,
7.318333333333334E+008,-4.065550118684769E-002,6.019744556397200E-003,-6.086140871047974E-001,-7.648865580558777E-001,-4.065550118684769E-002,6.019744556397200E-003,-6.086140871047974E-001,-7.648865580558777E-001,
7.402000000000000E+008,-4.696877673268318E-002,7.940282113850117E-003,-6.198837161064148E-001,-7.419875860214233E-001,-4.696877673268318E-002,7.940282113850117E-003,-6.198837161064148E-001,-7.419875860214233E-001,
7.485666666666666E+008,-5.223855376243591E-002,1.488929521292448E-002,-6.496098041534424E-001,-7.277571558952332E-001,-5.223855376243591E-002,1.488929521292448E-002,-6.496098041534424E-001,-7.277571558952332E-001,
7.569333333333334E+008,-5.605974420905113E-002,2.446087077260017E-002,-6.662105917930603E-001,-7.150003910064697E-001,-5.605974420905113E-002,2.446087077260017E-002,-6.662105917930603E-001,-7.150003910064697E-001,
7.653000000000000E+008,-5.082502961158752E-002,3.307938575744629E-002,-6.751302480697632E-001,-6.943581700325012E-001,-5.082502961158752E-002,3.307938575744629E-002,-6.751302480697632E-001,-6.943581700325012E-001,
7.736666666666666E+008,-4.480749368667603E-002,3.976824134588242E-002,-6.857736110687256E-001,-6.899552941322327E-001,-4.480749368667603E-002,3.976824134588242E-002,-6.857736110687256E-001,-6.899552941322327E-001,
7.820333333333334E+008,-3.640013188123703E-002,4.382605478167534E-002,-7.196912169456482E-001,-6.642275452613831E-001,-3.640013188123703E-002,4.382605478167534E-002,-7.196912169456482E-001,-6.642275452613831E-001,
7.904000000000000E+008,-2.713655307888985E-002,4.283398017287254E-002,-7.288953661918640E-001,-6.458715796470642E-001,-2.713655307888985E-002,4.283398017287254E-002,-7.288953661918640E-001,-6.458715796470642E-001,
7.987666666666666E+008,-2.328277565538883E-002,3.796999901533127E-002,-7.367855906486511E-001,-6.305826902389526E-001,-2.328277565538883E-002,3.796999901533127E-002,-7.367855906486511E-001,-6.305826902389526E-001,
8.071333333333334E+008,-2.165602147579193E-002,3.144930303096771E-002,-7.615216970443726E-001,-5.981503725051880E-001,-2.165602147579193E-002,3.144930303096771E-002,-7.615216970443726E-001,-5.981503725051880E-001,
8.155000000000000E+008,-2.482946775853634E-002,2.511260099709034E-002,-7.866124510765076E-001,-5.868454575538635E-001,-2.482946775853634E-002,2.511260099709034E-002,-7.866124510765076E-001,-5.868454575538635E-001,
8.238666666666666E+008,-3.162246197462082E-002,2.332151494920254E-002,-7.926581501960754E-001,-5.639656782150269E-001,-3.162246197462082E-002,2.332151494920254E-002,-7.926581501960754E-001,-5.639656782150269E-001,
8.322333333333334E+008,-3.738577663898468E-002,2.492175996303558E-002,-8.040090799331665E-001,-5.483555197715759E-001,-3.738577663898468E-002,2.492175996303558E-002,-8.040090799331665E-001,-5.483555197715759E-001,
8.406000000000000E+008,-4.184616729617119E-002,2.790074795484543E-002,-8.124688267707825E-001,-5.239310860633850E-001,-4.184616729617119E-002,2.790074795484543E-002,-8.124688267707825E-001,-5.239310860633850E-001,
8.489666666666668E+008,-4.341774806380272E-002,3.883858397603035E-002,-8.250660896301270E-001,-4.957368075847626E-001,-4.341774806380272E-002,3.883858397603035E-002,-8.250660896301270E-001,-4.957368075847626E-001,
8.573333333333334E+008,-4.142762720584869E-002,4.649540036916733E-002,-8.263488411903381E-001,-4.636941552162170E-001,-4.142762720584869E-002,4.649540036916733E-002,-8.263488411903381E-001,-4.636941552162170E-001,
8.657000000000000E+008,-3.616319969296455E-002,5.405821278691292E-002,-8.552719354629517E-001,-4.682545363903046E-001,-3.616319969296455E-002,5.405821278691292E-002,-8.552719354629517E-001,-4.682545363903046E-001,
8.740666666666668E+008,-2.749640122056007E-002,5.906539782881737E-002,-8.605416417121887E-001,-4.445026218891144E-001,-2.749640122056007E-002,5.906539782881737E-002,-8.605416417121887E-001,-4.445026218891144E-001,
8.824333333333334E+008,-1.958639360964298E-002,6.052130460739136E-002,-8.793154358863831E-001,-4.215402305126190E-001,-1.958639360964298E-002,6.052130460739136E-002,-8.793154358863831E-001,-4.215402305126190E-001,
8.908000000000000E+008,-1.190944947302342E-002,5.740504339337349E-002,-8.926447033882141E-001,-4.040619730949402E-001,-1.190944947302342E-002,5.740504339337349E-002,-8.926447033882141E-001,-4.040619730949402E-001,
8.991666666666668E+008,-6.687091663479805E-003,5.203705653548241E-002,-8.932347893714905E-001,-3.772882223129273E-001,-6.687091663479805E-003,5.203705653548241E-002,-8.932347893714905E-001,-3.772882223129273E-001,
9.075333333333334E+008,-6.905169691890478E-003,4.446617513895035E-002,-9.059942364692688E-001,-3.526484370231628E-001,-6.905169691890478E-003,4.446617513895035E-002,-9.059942364692688E-001,-3.526484370231628E-001,
9.159000000000000E+008,-9.546797722578049E-003,3.903621807694435E-002,-9.270644187927246E-001,-3.267585039138794E-001,-9.546797722578049E-003,3.903621807694435E-002,-9.270644187927246E-001,-3.267585039138794E-001,
9.242666666666668E+008,-1.654881425201893E-002,3.923127427697182E-002,-9.190821051597595E-001,-3.043782413005829E-001,-1.654881425201893E-002,3.923127427697182E-002,-9.190821051597595E-001,-3.043782413005829E-001,
9.326333333333334E+008,-2.145485021173954E-002,4.143055528402329E-002,-9.323275685310364E-001,-2.907833158969879E-001,-2.145485021173954E-002,4.143055528402329E-002,-9.323275685310364E-001,-2.907833158969879E-001,
9.410000000000000E+008,-2.551235258579254E-002,4.563527554273605E-002,-9.429408311843872E-001,-2.534599900245667E-001,-2.551235258579254E-002,4.563527554273605E-002,-9.429408311843872E-001,-2.534599900245667E-001,
9.493666666666668E+008,-2.713016234338284E-002,5.473220720887184E-002,-9.489784240722656E-001,-2.257277667522430E-001,-2.713016234338284E-002,5.473220720887184E-002,-9.489784240722656E-001,-2.257277667522430E-001,
9.577333333333334E+008,-2.353266254067421E-002,6.424605846405029E-002,-9.535622000694275E-001,-2.117062360048294E-001,-2.353266254067421E-002,6.424605846405029E-002,-9.535622000694275E-001,-2.117062360048294E-001,
9.661000000000000E+008,-1.465172786265612E-002,7.079974561929703E-002,-9.537256956100464E-001,-1.727886050939560E-001,-1.465172786265612E-002,7.079974561929703E-002,-9.537256956100464E-001,-1.727886050939560E-001,
9.744666666666668E+008,-3.982461523264647E-003,7.125476747751236E-002,-9.532710909843445E-001,-1.608316302299500E-001,-3.982461523264647E-003,7.125476747751236E-002,-9.532710909843445E-001,-1.608316302299500E-001,
9.828333333333334E+008,4.743048921227455E-003,7.239205390214920E-002,-9.679319262504578E-001,-1.414719372987747E-001,4.743048921227455E-003,7.239205390214920E-002,-9.679319262504578E-001,-1.414719372987747E-001,
9.912000000000000E+008,1.495331991463900E-002,6.658887863159180E-002,-9.654336571693420E-001,-1.196564957499504E-001,1.495331991463900E-002,6.658887863159180E-002,-9.654336571693420E-001,-1.196564957499504E-001,
9.995666666666668E+008,1.846914179623127E-002,5.918366461992264E-002,-9.787659645080566E-001,-8.232946693897247E-002,1.846914179623127E-002,5.918366461992264E-002,-9.787659645080566E-001,-8.232946693897247E-002,
1.007933333333333E+009,2.177551388740540E-002,4.995863139629364E-002,-9.931594729423523E-001,-6.536129117012024E-002,2.177551388740540E-002,4.995863139629364E-002,-9.931594729423523E-001,-6.536129117012024E-002,
1.016300000000000E+009,1.524296309798956E-002,4.422348365187645E-002,-9.822561740875244E-001,-4.095726460218430E-002,1.524296309798956E-002,4.422348365187645E-002,-9.822561740875244E-001,-4.095726460218430E-002,
1.024666666666667E+009,7.283435203135014E-003,4.028747230768204E-002,-9.764612317085266E-001,-1.429150160402060E-002,7.283435203135014E-003,4.028747230768204E-002,-9.764612317085266E-001,-1.429150160402060E-002,
1.033033333333333E+009,2.364479005336762E-003,4.519831016659737E-002,-9.811422228813171E-001,1.114744320511818E-002,2.364479005336762E-003,4.519831016659737E-002,-9.811422228813171E-001,1.114744320511818E-002,
1.041400000000000E+009,-4.181397613137960E-003,4.998072609305382E-002,-9.819747805595398E-001,3.332613036036491E-002,-4.181397613137960E-003,4.998072609305382E-002,-9.819747805595398E-001,3.332613036036491E-002,
1.049766666666667E+009,-9.575577569194138E-004,5.938394740223885E-002,-9.688013792037964E-001,6.768380105495453E-002,-9.575577569194138E-004,5.938394740223885E-002,-9.688013792037964E-001,6.768380105495453E-002,
1.058133333333333E+009,3.430732525885105E-003,6.841990351676941E-002,-9.697476029396057E-001,8.949970453977585E-002,3.430732525885105E-003,6.841990351676941E-002,-9.697476029396057E-001,8.949970453977585E-002,
1.066500000000000E+009,1.495903171598911E-002,7.265007495880127E-002,-9.826001524925232E-001,1.233452856540680E-001,1.495903171598911E-002,7.265007495880127E-002,-9.826001524925232E-001,1.233452856540680E-001,
1.074866666666667E+009,2.863037027418613E-002,7.145233452320099E-002,-9.777790904045105E-001,1.432459801435471E-001,2.863037027418613E-002,7.145233452320099E-002,-9.777790904045105E-001,1.432459801435471E-001,
1.083233333333334E+009,3.732147067785263E-002,6.355363130569458E-002,-9.608927369117737E-001,1.640618890523911E-001,3.732147067785263E-002,6.355363130569458E-002,-9.608927369117737E-001,1.640618890523911E-001,
1.091600000000000E+009,4.359070584177971E-002,5.322400853037834E-002,-9.441239237785339E-001,1.828538775444031E-001,4.359070584177971E-002,5.322400853037834E-002,-9.441239237785339E-001,1.828538775444031E-001,
1.099966666666667E+009,4.286468401551247E-002,4.039238020777702E-002,-9.390904307365418E-001,2.222928702831268E-001,4.286468401551247E-002,4.039238020777702E-002,-9.390904307365418E-001,2.222928702831268E-001,
1.108333333333334E+009,3.439433127641678E-002,3.269557654857636E-002,-9.389106631278992E-001,2.283044457435608E-001,3.439433127641678E-002,3.269557654857636E-002,-9.389106631278992E-001,2.283044457435608E-001,
1.116700000000000E+009,2.382829040288925E-002,2.988485991954804E-002,-9.321175813674927E-001,2.615260779857636E-001,2.382829040288925E-002,2.988485991954804E-002,-9.321175813674927E-001,2.615260779857636E-001,
1.125066666666667E+009,1.279257796704769E-002,3.460286557674408E-002,-9.324848055839539E-001,2.788379192352295E-001,1.279257796704769E-002,3.460286557674408E-002,-9.324848055839539E-001,2.788379192352295E-001,
1.133433333333334E+009,5.148700904101133E-003,4.412562027573586E-002,-9.290382862091065E-001,3.236036598682404E-001,5.148700904101133E-003,4.412562027573586E-002,-9.290382862091065E-001,3.236036598682404E-001,
1.141800000000000E+009,4.014999605715275E-003,5.736330896615982E-002,-9.058310985565186E-001,3.390707373619080E-001,4.014999605715275E-003,5.736330896615982E-002,-9.058310985565186E-001,3.390707373619080E-001,
1.150166666666667E+009,1.322992611676455E-002,7.117813825607300E-002,-8.947144746780396E-001,3.400668501853943E-001,1.322992611676455E-002,7.117813825607300E-002,-8.947144746780396E-001,3.400668501853943E-001,
1.158533333333334E+009,2.927232719957829E-002,7.780673354864121E-002,-8.894993066787720E-001,3.779682517051697E-001,2.927232719957829E-002,7.780673354864121E-002,-8.894993066787720E-001,3.779682517051697E-001,
1.166900000000000E+009,4.816314205527306E-002,7.746126502752304E-002,-8.736285567283630E-001,3.968670666217804E-001,4.816314205527306E-002,7.746126502752304E-002,-8.736285567283630E-001,3.968670666217804E-001,
1.175266666666667E+009,6.397066265344620E-002,6.674952059984207E-002,-8.698525428771973E-001,4.271323382854462E-001,6.397066265344620E-002,6.674952059984207E-002,-8.698525428771973E-001,4.271323382854462E-001,
1.183633333333334E+009,7.559737563133240E-002,5.248222127556801E-002,-8.662326931953430E-001,4.378770589828491E-001,7.559737563133240E-002,5.248222127556801E-002,-8.662326931953430E-001,4.378770589828491E-001,
1.192000000000000E+009,7.533404976129532E-002,3.418522700667381E-002,-8.528160452842712E-001,4.605115652084351E-001,7.533404976129532E-002,3.418522700667381E-002,-8.528160452842712E-001,4.605115652084351E-001,
1.200366666666667E+009,6.620252132415772E-002,1.808167807757855E-002,-8.410258293151856E-001,4.818874895572662E-001,6.620252132415772E-002,1.808167807757855E-002,-8.410258293151856E-001,4.818874895572662E-001,
1.208733333333334E+009,5.126095190644264E-002,1.020651776343584E-002,-8.348119258880615E-001,5.245664119720459E-001,5.126095190644264E-002,1.020651776343584E-002,-8.348119258880615E-001,5.245664119720459E-001,
1.217100000000000E+009,3.542521223425865E-002,1.204338297247887E-002,-8.324630856513977E-001,5.342304706573486E-001,3.542521223425865E-002,1.204338297247887E-002,-8.324630856513977E-001,5.342304706573486E-001,
1.225466666666667E+009,2.370641008019447E-002,2.294596470892429E-002,-7.976513504981995E-001,5.579044818878174E-001,2.370641008019447E-002,2.294596470892429E-002,-7.976513504981995E-001,5.579044818878174E-001,
1.233833333333334E+009,1.954508572816849E-002,3.934040665626526E-002,-7.920412421226502E-001,5.693472027778626E-001,1.954508572816849E-002,3.934040665626526E-002,-7.920412421226502E-001,5.693472027778626E-001,
1.242200000000000E+009,2.834579721093178E-002,5.321704596281052E-002,-7.667382955551148E-001,6.028268933296204E-001,2.834579721093178E-002,5.321704596281052E-002,-7.667382955551148E-001,6.028268933296204E-001,
1.250566666666667E+009,4.142373427748680E-002,6.262341886758804E-002,-7.444917559623718E-001,6.051172614097595E-001,4.142373427748680E-002,6.262341886758804E-002,-7.444917559623718E-001,6.051172614097595E-001,
1.258933333333334E+009,6.207211315631867E-002,6.215992569923401E-002,-7.395058274269104E-001,6.269249320030212E-001,6.207211315631867E-002,6.215992569923401E-002,-7.395058274269104E-001,6.269249320030212E-001,
1.267300000000000E+009,8.082147687673569E-002,5.073827877640724E-002,-7.208246588706970E-001,6.428116559982300E-001,8.082147687673569E-002,5.073827877640724E-002,-7.208246588706970E-001,6.428116559982300E-001,
1.275666666666667E+009,8.975157141685486E-002,3.289348632097244E-002,-7.096800804138184E-001,6.491020917892456E-001,8.975157141685486E-002,3.289348632097244E-002,-7.096800804138184E-001,6.491020917892456E-001,
1.284033333333334E+009,9.214980155229569E-002,1.206371281296015E-002,-6.937634944915772E-001,6.928344964981079E-001,9.214980155229569E-002,1.206371281296015E-002,-6.937634944915772E-001,6.928344964981079E-001,
1.292400000000000E+009,8.166148513555527E-002,-5.860666744410992E-003,-6.819037795066834E-001,6.952481269836426E-001,8.166148513555527E-002,-5.860666744410992E-003,-6.819037795066834E-001,6.952481269836426E-001,
1.300766666666667E+009,6.254754960536957E-002,-1.391028333455324E-002,-6.590310931205750E-001,7.203495502471924E-001,6.254754960536957E-002,-1.391028333455324E-002,-6.590310931205750E-001,7.203495502471924E-001,
1.309133333333334E+009,4.248213022947311E-002,-1.169260870665312E-002,-6.325702667236328E-001,7.340304255485535E-001,4.248213022947311E-002,-1.169260870665312E-002,-6.325702667236328E-001,7.340304255485535E-001,
1.317500000000000E+009,2.833461761474609E-002,4.569260054267943E-004,-6.196890473365784E-001,7.657655477523804E-001,2.833461761474609E-002,4.569260054267943E-004,-6.196890473365784E-001,7.657655477523804E-001,
1.325866666666667E+009,2.403588593006134E-002,1.752510294318199E-002,-6.013026237487793E-001,7.797368764877319E-001,2.403588593006134E-002,1.752510294318199E-002,-6.013026237487793E-001,7.797368764877319E-001,
1.334233333333334E+009,3.227021545171738E-002,3.477196022868156E-002,-5.824424028396606E-001,7.847905755043030E-001,3.227021545171738E-002,3.477196022868156E-002,-5.824424028396606E-001,7.847905755043030E-001,
1.342600000000000E+009,4.799646511673927E-002,4.309064894914627E-002,-5.638650655746460E-001,8.008221387863159E-001,4.799646511673927E-002,4.309064894914627E-002,-5.638650655746460E-001,8.008221387863159E-001,
1.350966666666667E+009,6.790911406278610E-002,3.964181989431381E-002,-5.396242737770081E-001,8.122576475143433E-001,6.790911406278610E-002,3.964181989431381E-002,-5.396242737770081E-001,8.122576475143433E-001,
1.359333333333334E+009,8.262553066015244E-002,2.539844252169132E-002,-5.274240970611572E-001,8.142774105072022E-001,8.262553066015244E-002,2.539844252169132E-002,-5.274240970611572E-001,8.142774105072022E-001,
1.367700000000000E+009,8.815291523933411E-002,5.413960199803114E-003,-4.933599233627319E-001,8.315770626068115E-001,8.815291523933411E-002,5.413960199803114E-003,-4.933599233627319E-001,8.315770626068115E-001,
1.376066666666667E+009,8.503851294517517E-002,-1.631505414843559E-002,-4.774732291698456E-001,8.406524062156677E-001,8.503851294517517E-002,-1.631505414843559E-002,-4.774732291698456E-001,8.406524062156677E-001,
1.384433333333334E+009,6.819428503513336E-002,-3.107803687453270E-002,-4.631496369838715E-001,8.718591332435608E-001,6.819428503513336E-002,-3.107803687453270E-002,-4.631496369838715E-001,8.718591332435608E-001,
1.392800000000000E+009,4.810648784041405E-002,-3.273245319724083E-002,-4.420351088047028E-001,8.811135292053223E-001,4.810648784041405E-002,-3.273245319724083E-002,-4.420351088047028E-001,8.811135292053223E-001,
1.401166666666667E+009,2.826674096286297E-002,-2.480236254632473E-002,-4.138391911983490E-001,8.871941566467285E-001,2.826674096286297E-002,-2.480236254632473E-002,-4.138391911983490E-001,8.871941566467285E-001,
1.409533333333334E+009,1.558565720915794E-002,-7.047927938401699E-003,-3.842493593692780E-001,9.017593264579773E-001,1.558565720915794E-002,-7.047927938401699E-003,-3.842493593692780E-001,9.017593264579773E-001,
1.417900000000000E+009,1.684658043086529E-002,1.603664457798004E-002,-3.646023571491242E-001,8.972823023796082E-001,1.684658043086529E-002,1.603664457798004E-002,-3.646023571491242E-001,8.972823023796082E-001,
1.426266666666667E+009,2.797473967075348E-002,3.235857188701630E-002,-3.265369236469269E-001,9.218712449073792E-001,2.797473967075348E-002,3.235857188701630E-002,-3.265369236469269E-001,9.218712449073792E-001,
1.434633333333334E+009,4.797102510929108E-002,3.990977630019188E-002,-3.196561336517334E-001,9.158390164375305E-001,4.797102510929108E-002,3.990977630019188E-002,-3.196561336517334E-001,9.158390164375305E-001,
1.443000000000000E+009,6.816808134317398E-002,3.625249117612839E-002,-2.952049672603607E-001,9.233696460723877E-001,6.816808134317398E-002,3.625249117612839E-002,-2.952049672603607E-001,9.233696460723877E-001,
1.451366666666667E+009,8.372325450181961E-002,2.005289308726788E-002,-2.701404392719269E-001,9.236928820610046E-001,8.372325450181961E-002,2.005289308726788E-002,-2.701404392719269E-001,9.236928820610046E-001,
1.459733333333334E+009,9.005593508481979E-002,-5.884220008738339E-004,-2.440144866704941E-001,9.495070576667786E-001,9.005593508481979E-002,-5.884220008738339E-004,-2.440144866704941E-001,9.495070576667786E-001,
