% Version 1.00
%
%freq[Hz],re:Trc1_S11,im:Trc1_S11,re:Trc2_S21,im:Trc2_S21,re:Trc3_S11,im:Trc3_S11,re:Trc4_S21,im:Trc4_S21,
6.900000000000000E+008,-5.517778545618057E-002,8.476705849170685E-002,-4.629926085472107E-001,-8.636406064033508E-001,-5.517778545618057E-002,8.476705849170685E-002,-4.629926085472107E-001,-8.636406064033508E-001,
6.983666666666666E+008,-4.531736671924591E-002,8.520920574665070E-002,-4.890141487121582E-001,-8.536629676818848E-001,-4.531736671924591E-002,8.520920574665070E-002,-4.890141487121582E-001,-8.536629676818848E-001,
7.067333333333334E+008,-3.765789791941643E-002,8.121558278799057E-002,-5.128862857818604E-001,-8.298104405403137E-001,-3.765789791941643E-002,8.121558278799057E-002,-5.128862857818604E-001,-8.298104405403137E-001,
7.151000000000000E+008,-3.443603962659836E-002,7.354065030813217E-002,-5.491499304771423E-001,-8.293838500976563E-001,-3.443603962659836E-002,7.354065030813217E-002,-5.491499304771423E-001,-8.293838500976563E-001,
7.234666666666666E+008,-3.437765315175057E-002,6.812363862991333E-002,-5.638675093650818E-001,-8.143344521522522E-001,-3.437765315175057E-002,6.812363862991333E-002,-5.638675093650818E-001,-8.143344521522522E-001,
7.318333333333334E+008,-3.971599042415619E-002,6.461451947689056E-002,-5.824452638626099E-001,-7.973827719688416E-001,-3.971599042415619E-002,6.461451947689056E-002,-5.824452638626099E-001,-7.973827719688416E-001,
7.402000000000000E+008,-4.405146837234497E-002,6.536371260881424E-002,-5.950208902359009E-001,-7.721153497695923E-001,-4.405146837234497E-002,6.536371260881424E-002,-5.950208902359009E-001,-7.721153497695923E-001,
7.485666666666666E+008,-4.809410497546196E-002,7.127738744020462E-002,-6.257423162460327E-001,-7.589473128318787E-001,-4.809410497546196E-002,7.127738744020462E-002,-6.257423162460327E-001,-7.589473128318787E-001,
7.569333333333334E+008,-5.093099921941757E-002,8.007758110761643E-002,-6.452342271804810E-001,-7.460439205169678E-001,-5.093099921941757E-002,8.007758110761643E-002,-6.452342271804810E-001,-7.460439205169678E-001,
7.653000000000000E+008,-4.480445384979248E-002,8.776662498712540E-002,-6.539959311485291E-001,-7.266707420349121E-001,-4.480445384979248E-002,8.776662498712540E-002,-6.539959311485291E-001,-7.266707420349121E-001,
7.736666666666666E+008,-3.776540607213974E-002,9.372860193252564E-002,-6.667092442512512E-001,-7.228370904922485E-001,-3.776540607213974E-002,9.372860193252564E-002,-6.667092442512512E-001,-7.228370904922485E-001,
7.820333333333334E+008,-2.804481051862240E-002,9.719794243574143E-002,-7.007734775543213E-001,-6.958355903625488E-001,-2.804481051862240E-002,9.719794243574143E-002,-7.007734775543213E-001,-6.958355903625488E-001,
7.904000000000000E+008,-1.682785898447037E-002,9.560620784759522E-002,-7.106154561042786E-001,-6.779185533523560E-001,-1.682785898447037E-002,9.560620784759522E-002,-7.106154561042786E-001,-6.779185533523560E-001,
7.987666666666666E+008,-1.050589419901371E-002,8.984402567148209E-002,-7.168020009994507E-001,-6.625058054924011E-001,-1.050589419901371E-002,8.984402567148209E-002,-7.168020009994507E-001,-6.625058054924011E-001,
8.071333333333334E+008,-7.328909356147051E-003,8.341934531927109E-002,-7.447676062583923E-001,-6.308759450912476E-001,-7.328909356147051E-003,8.341934531927109E-002,-7.447676062583923E-001,-6.308759450912476E-001,
8.155000000000000E+008,-8.630040101706982E-003,7.478257268667221E-002,-7.722063064575195E-001,-6.209021210670471E-001,-8.630040101706982E-003,7.478257268667221E-002,-7.722063064575195E-001,-6.209021210670471E-001,
8.238666666666666E+008,-1.387215871363878E-002,7.201991975307465E-002,-7.797554135322571E-001,-5.970901250839233E-001,-1.387215871363878E-002,7.201991975307465E-002,-7.797554135322571E-001,-5.970901250839233E-001,
8.322333333333334E+008,-1.818836852908135E-002,7.202338427305222E-002,-7.904642820358276E-001,-5.789396166801453E-001,-1.818836852908135E-002,7.202338427305222E-002,-7.904642820358276E-001,-5.789396166801453E-001,
8.406000000000000E+008,-2.219033055007458E-002,7.415917515754700E-002,-8.033636212348938E-001,-5.561072826385498E-001,-2.219033055007458E-002,7.415917515754700E-002,-8.033636212348938E-001,-5.561072826385498E-001,
8.489666666666668E+008,-2.265724726021290E-002,8.414936810731888E-002,-8.167021870613098E-001,-5.269646644592285E-001,-2.265724726021290E-002,8.414936810731888E-002,-8.167021870613098E-001,-5.269646644592285E-001,
8.573333333333334E+008,-2.013393491506577E-002,9.066513925790787E-002,-8.197945356369019E-001,-4.959419071674347E-001,-2.013393491506577E-002,9.066513925790787E-002,-8.197945356369019E-001,-4.959419071674347E-001,
8.657000000000000E+008,-1.481765322387219E-002,9.702964872121811E-002,-8.471230864524841E-001,-5.005655884742737E-001,-1.481765322387219E-002,9.702964872121811E-002,-8.471230864524841E-001,-5.005655884742737E-001,
8.740666666666668E+008,-5.030027590692043E-003,1.010915040969849E-001,-8.542780280113220E-001,-4.756246805191040E-001,-5.030027590692043E-003,1.010915040969849E-001,-8.542780280113220E-001,-4.756246805191040E-001,
8.824333333333334E+008,3.757956437766552E-003,1.019709482789040E-001,-8.727375864982605E-001,-4.517687261104584E-001,3.757956437766552E-003,1.019709482789040E-001,-8.727375864982605E-001,-4.517687261104584E-001,
8.908000000000000E+008,1.275810133665800E-002,9.763808548450470E-002,-8.869764208793640E-001,-4.346823394298554E-001,1.275810133665800E-002,9.763808548450470E-002,-8.869764208793640E-001,-4.346823394298554E-001,
8.991666666666668E+008,1.914823986589909E-002,9.031581133604050E-002,-8.877102732658386E-001,-4.074302315711975E-001,1.914823986589909E-002,9.031581133604050E-002,-8.877102732658386E-001,-4.074302315711975E-001,
9.075333333333334E+008,2.116609923541546E-002,8.169405907392502E-002,-9.028362035751343E-001,-3.821007907390595E-001,2.116609923541546E-002,8.169405907392502E-002,-9.028362035751343E-001,-3.821007907390595E-001,
9.159000000000000E+008,1.880166865885258E-002,7.513633370399475E-002,-9.249603748321533E-001,-3.578405976295471E-001,1.880166865885258E-002,7.513633370399475E-002,-9.249603748321533E-001,-3.578405976295471E-001,
9.242666666666668E+008,1.305276062339544E-002,7.399002462625504E-002,-9.180713891983032E-001,-3.354438245296478E-001,1.305276062339544E-002,7.399002462625504E-002,-9.180713891983032E-001,-3.354438245296478E-001,
9.326333333333334E+008,8.688427507877350E-003,7.491829991340637E-002,-9.342222809791565E-001,-3.209430277347565E-001,8.688427507877350E-003,7.491829991340637E-002,-9.342222809791565E-001,-3.209430277347565E-001,
9.410000000000000E+008,4.957630299031735E-003,7.772240787744522E-002,-9.457108378410339E-001,-2.849979102611542E-001,4.957630299031735E-003,7.772240787744522E-002,-9.457108378410339E-001,-2.849979102611542E-001,
9.493666666666668E+008,3.646943718194962E-003,8.544286340475082E-002,-9.509069323539734E-001,-2.536452412605286E-001,3.646943718194962E-003,8.544286340475082E-002,-9.509069323539734E-001,-2.536452412605286E-001,
9.577333333333334E+008,7.538639008998871E-003,9.428319334983826E-002,-9.571098685264587E-001,-2.401381283998489E-001,7.538639008998871E-003,9.428319334983826E-002,-9.571098685264587E-001,-2.401381283998489E-001,
9.661000000000000E+008,1.594226062297821E-002,1.000390574336052E-001,-9.584218263626099E-001,-1.975795477628708E-001,1.594226062297821E-002,1.000390574336052E-001,-9.584218263626099E-001,-1.975795477628708E-001,
9.744666666666668E+008,2.614028938114643E-002,9.899332374334335E-002,-9.566927552223206E-001,-1.873267143964768E-001,2.614028938114643E-002,9.899332374334335E-002,-9.566927552223206E-001,-1.873267143964768E-001,
9.828333333333334E+008,3.557455167174339E-002,9.937934577465057E-002,-9.724816679954529E-001,-1.680557876825333E-001,3.557455167174339E-002,9.937934577465057E-002,-9.724816679954529E-001,-1.680557876825333E-001,
9.912000000000000E+008,4.639054834842682E-002,9.213689714670181E-002,-9.704971313476563E-001,-1.458343714475632E-001,4.639054834842682E-002,9.213689714670181E-002,-9.704971313476563E-001,-1.458343714475632E-001,
9.995666666666668E+008,5.070143193006516E-002,8.361978083848953E-002,-9.831110835075378E-001,-1.095119863748550E-001,5.070143193006516E-002,8.361978083848953E-002,-9.831110835075378E-001,-1.095119863748550E-001,
1.007933333333333E+009,5.499615892767906E-002,7.269712537527084E-002,-9.977239966392517E-001,-9.218113869428635E-002,5.499615892767906E-002,7.269712537527084E-002,-9.977239966392517E-001,-9.218113869428635E-002,
1.016300000000000E+009,4.947081953287125E-002,6.525527685880661E-002,-9.851153492927551E-001,-6.528346240520477E-002,4.947081953287125E-002,6.525527685880661E-002,-9.851153492927551E-001,-6.528346240520477E-002,
1.024666666666667E+009,4.206141829490662E-002,6.060617044568062E-002,-9.817574024200440E-001,-3.895830735564232E-002,4.206141829490662E-002,6.060617044568062E-002,-9.817574024200440E-001,-3.895830735564232E-002,
1.033033333333333E+009,3.735727444291115E-002,6.400644034147263E-002,-9.893207550048828E-001,-1.225060690194368E-002,3.735727444291115E-002,6.400644034147263E-002,-9.893207550048828E-001,-1.225060690194368E-002,
1.041400000000000E+009,3.050386905670166E-002,6.790582835674286E-002,-9.894070029258728E-001,9.330688044428825E-003,3.050386905670166E-002,6.790582835674286E-002,-9.894070029258728E-001,9.330688044428825E-003,
1.049766666666667E+009,3.312261030077934E-002,7.593614608049393E-002,-9.757308363914490E-001,4.620981588959694E-002,3.312261030077934E-002,7.593614608049393E-002,-9.757308363914490E-001,4.620981588959694E-002,
1.058133333333333E+009,3.723147138953209E-002,8.428468555212021E-002,-9.775809645652771E-001,6.861642748117447E-002,3.723147138953209E-002,8.428468555212021E-002,-9.775809645652771E-001,6.861642748117447E-002,
1.066500000000000E+009,4.786081612110138E-002,8.760140836238861E-002,-9.920121431350708E-001,1.028460860252380E-001,4.786081612110138E-002,8.760140836238861E-002,-9.920121431350708E-001,1.028460860252380E-001,
1.074866666666667E+009,6.097356975078583E-002,8.531587570905685E-002,-9.861801266670227E-001,1.231063753366470E-001,6.097356975078583E-002,8.531587570905685E-002,-9.861801266670227E-001,1.231063753366470E-001,
1.083233333333334E+009,6.950304657220841E-002,7.666295021772385E-002,-9.700949192047119E-001,1.441486030817032E-001,6.950304657220841E-002,7.666295021772385E-002,-9.700949192047119E-001,1.441486030817032E-001,
1.091600000000000E+009,7.612175494432449E-002,6.512669473886490E-002,-9.527440071105957E-001,1.640120297670364E-001,7.612175494432449E-002,6.512669473886490E-002,-9.527440071105957E-001,1.640120297670364E-001,
1.099966666666667E+009,7.542993128299713E-002,5.095158517360687E-002,-9.490149021148682E-001,2.026351839303970E-001,7.542993128299713E-002,5.095158517360687E-002,-9.490149021148682E-001,2.026351839303970E-001,
1.108333333333334E+009,6.784316897392273E-002,4.192333668470383E-002,-9.496208429336548E-001,2.110573798418045E-001,6.784316897392273E-002,4.192333668470383E-002,-9.496208429336548E-001,2.110573798418045E-001,
1.116700000000000E+009,5.781350284814835E-002,3.746137395501137E-002,-9.426948428153992E-001,2.449009120464325E-001,5.781350284814835E-002,3.746137395501137E-002,-9.426948428153992E-001,2.449009120464325E-001,
1.125066666666667E+009,4.689936712384224E-002,4.077032953500748E-002,-9.439033269882202E-001,2.618417143821716E-001,4.689936712384224E-002,4.077032953500748E-002,-9.439033269882202E-001,2.618417143821716E-001,
1.133433333333334E+009,3.880874067544937E-002,4.925232753157616E-002,-9.417220950126648E-001,3.072481453418732E-001,3.880874067544937E-002,4.925232753157616E-002,-9.417220950126648E-001,3.072481453418732E-001,
1.141800000000000E+009,3.709467127919197E-002,6.161799654364586E-002,-9.189495444297791E-001,3.224641978740692E-001,3.709467127919197E-002,6.161799654364586E-002,-9.189495444297791E-001,3.224641978740692E-001,
1.150166666666667E+009,4.511084780097008E-002,7.516535371541977E-002,-9.097785353660584E-001,3.241721987724304E-001,4.511084780097008E-002,7.516535371541977E-002,-9.097785353660584E-001,3.241721987724304E-001,
1.158533333333334E+009,6.036551296710968E-002,8.145678043365479E-002,-9.023672938346863E-001,3.644842207431793E-001,6.036551296710968E-002,8.145678043365479E-002,-9.023672938346863E-001,3.644842207431793E-001,
1.166900000000000E+009,7.860149443149567E-002,8.072520047426224E-002,-8.854749798774719E-001,3.848405480384827E-001,7.860149443149567E-002,8.072520047426224E-002,-8.854749798774719E-001,3.848405480384827E-001,
1.175266666666667E+009,9.355462342500687E-002,6.966009736061096E-002,-8.797066807746887E-001,4.139823317527771E-001,9.355462342500687E-002,6.966009736061096E-002,-8.797066807746887E-001,4.139823317527771E-001,
1.183633333333334E+009,1.050669923424721E-001,5.447616800665855E-002,-8.784190416336060E-001,4.259098768234253E-001,1.050669923424721E-001,5.447616800665855E-002,-8.784190416336060E-001,4.259098768234253E-001,
1.192000000000000E+009,1.047742739319801E-001,3.529933094978333E-002,-8.661127686500549E-001,4.483224153518677E-001,1.047742739319801E-001,3.529933094978333E-002,-8.661127686500549E-001,4.483224153518677E-001,
1.200366666666667E+009,9.539941698312759E-002,1.827925071120262E-002,-8.540033698081970E-001,4.698753654956818E-001,9.539941698312759E-002,1.827925071120262E-002,-8.540033698081970E-001,4.698753654956818E-001,
1.208733333333334E+009,8.073165267705917E-002,8.565583266317844E-003,-8.478186726570129E-001,5.121445655822754E-001,8.073165267705917E-002,8.565583266317844E-003,-8.478186726570129E-001,5.121445655822754E-001,
1.217100000000000E+009,6.475044786930084E-002,8.729299530386925E-003,-8.436793088912964E-001,5.222820639610291E-001,6.475044786930084E-002,8.729299530386925E-003,-8.436793088912964E-001,5.222820639610291E-001,
1.225466666666667E+009,5.274718999862671E-002,1.871637068688870E-002,-8.118291497230530E-001,5.477513074874878E-001,5.274718999862671E-002,1.871637068688870E-002,-8.118291497230530E-001,5.477513074874878E-001,
1.233833333333334E+009,4.793942719697952E-002,3.445326536893845E-002,-8.065865039825440E-001,5.599685907363892E-001,4.793942719697952E-002,3.445326536893845E-002,-8.065865039825440E-001,5.599685907363892E-001,
1.242200000000000E+009,5.565827339887619E-002,4.803166911005974E-002,-7.809993624687195E-001,5.939325690269470E-001,5.565827339887619E-002,4.803166911005974E-002,-7.809993624687195E-001,5.939325690269470E-001,
1.250566666666667E+009,6.797547638416290E-002,5.750584974884987E-002,-7.586470246315002E-001,5.996336340904236E-001,6.797547638416290E-002,5.750584974884987E-002,-7.586470246315002E-001,5.996336340904236E-001,
1.258933333333334E+009,8.735222369432449E-002,5.759683623909950E-002,-7.530958056449890E-001,6.214733719825745E-001,8.735222369432449E-002,5.759683623909950E-002,-7.530958056449890E-001,6.214733719825745E-001,
1.267300000000000E+009,1.060529723763466E-001,4.642290249466896E-002,-7.340487241744995E-001,6.360200643539429E-001,1.060529723763466E-001,4.642290249466896E-002,-7.340487241744995E-001,6.360200643539429E-001,
1.275666666666667E+009,1.143875867128372E-001,2.847235463559628E-002,-7.218970656394959E-001,6.438208818435669E-001,1.143875867128372E-001,2.847235463559628E-002,-7.218970656394959E-001,6.438208818435669E-001,
1.284033333333334E+009,1.157990396022797E-001,7.061347365379334E-003,-7.058579921722412E-001,6.857467293739319E-001,1.157990396022797E-001,7.061347365379334E-003,-7.058579921722412E-001,6.857467293739319E-001,
1.292400000000000E+009,1.052544936537743E-001,-1.205370388925076E-002,-6.937505006790161E-001,6.894136071205139E-001,1.052544936537743E-001,-1.205370388925076E-002,-6.937505006790161E-001,6.894136071205139E-001,
1.300766666666667E+009,8.575779944658279E-002,-2.118293195962906E-002,-6.720501780509949E-001,7.138235569000244E-001,8.575779944658279E-002,-2.118293195962906E-002,-6.720501780509949E-001,7.138235569000244E-001,
1.309133333333334E+009,6.530072540044785E-002,-2.062281593680382E-002,-6.475762724876404E-001,7.287322878837585E-001,6.530072540044785E-002,-2.062281593680382E-002,-6.475762724876404E-001,7.287322878837585E-001,
1.317500000000000E+009,5.066091194748879E-002,-9.218682534992695E-003,-6.351152062416077E-001,7.598713636398315E-001,5.066091194748879E-002,-9.218682534992695E-003,-6.351152062416077E-001,7.598713636398315E-001,
1.325866666666667E+009,4.585819318890572E-002,7.070564199239016E-003,-6.154061555862427E-001,7.750225663185120E-001,4.585819318890572E-002,7.070564199239016E-003,-6.154061555862427E-001,7.750225663185120E-001,
1.334233333333334E+009,5.352032929658890E-002,2.412908710539341E-002,-5.964172482490540E-001,7.813293933868408E-001,5.352032929658890E-002,2.412908710539341E-002,-5.964172482490540E-001,7.813293933868408E-001,
1.342600000000000E+009,6.846600025892258E-002,3.280828893184662E-002,-5.783559083938599E-001,7.987139821052551E-001,6.846600025892258E-002,3.280828893184662E-002,-5.783559083938599E-001,7.987139821052551E-001,
1.350966666666667E+009,8.776922523975372E-002,2.980139851570129E-002,-5.517411828041077E-001,8.105236887931824E-001,8.776922523975372E-002,2.980139851570129E-002,-5.517411828041077E-001,8.105236887931824E-001,
1.359333333333334E+009,1.018829867243767E-001,1.650645211338997E-002,-5.382114052772522E-001,8.103188276290894E-001,1.018829867243767E-001,1.650645211338997E-002,-5.382114052772522E-001,8.103188276290894E-001,
1.367700000000000E+009,1.070111542940140E-001,-2.848462434485555E-003,-5.047447085380554E-001,8.290353417396545E-001,1.070111542940140E-001,-2.848462434485555E-003,-5.047447085380554E-001,8.290353417396545E-001,
1.376066666666667E+009,1.026123911142349E-001,-2.494129724800587E-002,-4.896151721477509E-001,8.383958339691162E-001,1.026123911142349E-001,-2.494129724800587E-002,-4.896151721477509E-001,8.383958339691162E-001,
1.384433333333334E+009,8.527524769306183E-002,-4.016955196857452E-002,-4.746097326278687E-001,8.692497014999390E-001,8.527524769306183E-002,-4.016955196857452E-002,-4.746097326278687E-001,8.692497014999390E-001,
1.392800000000000E+009,6.446070224046707E-002,-4.276064410805702E-002,-4.540487527847290E-001,8.779458403587341E-001,6.446070224046707E-002,-4.276064410805702E-002,-4.540487527847290E-001,8.779458403587341E-001,
1.401166666666667E+009,4.397982731461525E-002,-3.593872115015984E-002,-4.270782768726349E-001,8.855534791946411E-001,4.397982731461525E-002,-3.593872115015984E-002,-4.270782768726349E-001,8.855534791946411E-001,
1.409533333333334E+009,3.006449341773987E-002,-1.909958012402058E-002,-3.978167474269867E-001,9.007523059844971E-001,3.006449341773987E-002,-1.909958012402058E-002,-3.978167474269867E-001,9.007523059844971E-001,
1.417900000000000E+009,3.094179183244705E-002,3.458444960415363E-003,-3.782306611537933E-001,8.972665667533875E-001,3.094179183244705E-002,3.458444960415363E-003,-3.782306611537933E-001,8.972665667533875E-001,
1.426266666666667E+009,4.147940501570702E-002,1.988999731838703E-002,-3.406943380832672E-001,9.233267903327942E-001,4.147940501570702E-002,1.988999731838703E-002,-3.406943380832672E-001,9.233267903327942E-001,
1.434633333333334E+009,6.159867718815804E-002,2.788139320909977E-002,-3.306177556514740E-001,9.176738262176514E-001,6.159867718815804E-002,2.788139320909977E-002,-3.306177556514740E-001,9.176738262176514E-001,
1.443000000000000E+009,8.159021288156509E-002,2.494754455983639E-002,-3.056593835353851E-001,9.252356886863709E-001,8.159021288156509E-002,2.494754455983639E-002,-3.056593835353851E-001,9.252356886863709E-001,
1.451366666666667E+009,9.695535898208618E-002,9.540999308228493E-003,-2.795561552047730E-001,9.254259467124939E-001,9.695535898208618E-002,9.540999308228493E-003,-2.795561552047730E-001,9.254259467124939E-001,
1.459733333333334E+009,1.028180569410324E-001,-1.043582335114479E-002,-2.535707056522369E-001,9.520694613456726E-001,1.028180569410324E-001,-1.043582335114479E-002,-2.535707056522369E-001,9.520694613456726E-001,
