% Version 1.00
%
%freq[Hz],re:Trc1_S11,im:Trc1_S11,re:Trc2_S21,im:Trc2_S21,re:Trc3_S11,im:Trc3_S11,re:Trc4_S21,im:Trc4_S21,
6.900000000000000E+008,-5.498556047677994E-002,4.499921575188637E-002,-5.119194984436035E-001,-8.445788025856018E-001,-5.498556047677994E-002,4.499921575188637E-002,-5.119194984436035E-001,-8.445788025856018E-001,
6.983666666666666E+008,-4.689089953899384E-002,4.531642049551010E-002,-5.364475250244141E-001,-8.339783549308777E-001,-4.689089953899384E-002,4.531642049551010E-002,-5.364475250244141E-001,-8.339783549308777E-001,
7.067333333333334E+008,-4.099138826131821E-002,4.097681492567062E-002,-5.593871474266052E-001,-8.081159591674805E-001,-4.099138826131821E-002,4.097681492567062E-002,-5.593871474266052E-001,-8.081159591674805E-001,
7.151000000000000E+008,-4.040259122848511E-002,3.381545469164848E-002,-5.949557423591614E-001,-8.060469627380371E-001,-4.040259122848511E-002,3.381545469164848E-002,-5.949557423591614E-001,-8.060469627380371E-001,
7.234666666666666E+008,-4.225009679794312E-002,2.916545048356056E-002,-6.081134080886841E-001,-7.896696925163269E-001,-4.225009679794312E-002,2.916545048356056E-002,-6.081134080886841E-001,-7.896696925163269E-001,
7.318333333333334E+008,-4.928677529096603E-002,2.741807140409946E-002,-6.251820325851440E-001,-7.721000313758850E-001,-4.928677529096603E-002,2.741807140409946E-002,-6.251820325851440E-001,-7.721000313758850E-001,
7.402000000000000E+008,-5.518764629960060E-002,3.000040538609028E-002,-6.358356475830078E-001,-7.466877102851868E-001,-5.518764629960060E-002,3.000040538609028E-002,-6.358356475830078E-001,-7.466877102851868E-001,
7.485666666666666E+008,-6.033749133348465E-002,3.754397481679916E-002,-6.658832430839539E-001,-7.327971458435059E-001,-6.033749133348465E-002,3.754397481679916E-002,-6.658832430839539E-001,-7.327971458435059E-001,
7.569333333333334E+008,-6.390627473592758E-002,4.768253117799759E-002,-6.841573119163513E-001,-7.194425463676453E-001,-6.390627473592758E-002,4.768253117799759E-002,-6.841573119163513E-001,-7.194425463676453E-001,
7.653000000000000E+008,-5.837865546345711E-002,5.658897012472153E-002,-6.914994716644287E-001,-7.004838585853577E-001,-5.837865546345711E-002,5.658897012472153E-002,-6.914994716644287E-001,-7.004838585853577E-001,
7.736666666666666E+008,-5.200855433940888E-002,6.315819174051285E-002,-7.042322754859924E-001,-6.968494057655335E-001,-5.200855433940888E-002,6.315819174051285E-002,-7.042322754859924E-001,-6.968494057655335E-001,
7.820333333333334E+008,-4.339307174086571E-002,6.706221401691437E-002,-7.370648980140686E-001,-6.683103442192078E-001,-4.339307174086571E-002,6.706221401691437E-002,-7.370648980140686E-001,-6.683103442192078E-001,
7.904000000000000E+008,-3.346767276525497E-002,6.591852754354477E-002,-7.464540004730225E-001,-6.490691304206848E-001,-3.346767276525497E-002,6.591852754354477E-002,-7.464540004730225E-001,-6.490691304206848E-001,
7.987666666666666E+008,-2.907785587012768E-002,6.075451523065567E-002,-7.515408992767334E-001,-6.335927844047546E-001,-2.907785587012768E-002,6.075451523065567E-002,-7.515408992767334E-001,-6.335927844047546E-001,
8.071333333333334E+008,-2.716861478984356E-002,5.456054583191872E-002,-7.779624462127686E-001,-6.005316972732544E-001,-2.716861478984356E-002,5.456054583191872E-002,-7.779624462127686E-001,-6.005316972732544E-001,
8.155000000000000E+008,-2.963429503142834E-002,4.771069809794426E-002,-8.042865395545960E-001,-5.890319943428040E-001,-2.963429503142834E-002,4.771069809794426E-002,-8.042865395545960E-001,-5.890319943428040E-001,
8.238666666666666E+008,-3.590692207217217E-002,4.625939205288887E-002,-8.103244304656982E-001,-5.652091503143311E-001,-3.590692207217217E-002,4.625939205288887E-002,-8.103244304656982E-001,-5.652091503143311E-001,
8.322333333333334E+008,-4.099465534090996E-002,4.827844724059105E-002,-8.203596472740173E-001,-5.472389459609985E-001,-4.099465534090996E-002,4.827844724059105E-002,-8.203596472740173E-001,-5.472389459609985E-001,
8.406000000000000E+008,-4.502121731638908E-002,5.200098454952240E-002,-8.311942815780640E-001,-5.235753655433655E-001,-4.502121731638908E-002,5.200098454952240E-002,-8.311942815780640E-001,-5.235753655433655E-001,
8.489666666666668E+008,-4.611474648118019E-002,6.375069171190262E-002,-8.430850505828857E-001,-4.945894479751587E-001,-4.611474648118019E-002,6.375069171190262E-002,-8.430850505828857E-001,-4.945894479751587E-001,
8.573333333333334E+008,-4.372360184788704E-002,7.185786217451096E-002,-8.446154594421387E-001,-4.638136625289917E-001,-4.372360184788704E-002,7.185786217451096E-002,-8.446154594421387E-001,-4.638136625289917E-001,
8.657000000000000E+008,-3.825140371918678E-002,7.946976274251938E-002,-8.721641302108765E-001,-4.671641588211060E-001,-3.825140371918678E-002,7.946976274251938E-002,-8.721641302108765E-001,-4.671641588211060E-001,
8.740666666666668E+008,-2.906510978937149E-002,8.469158411026001E-002,-8.780592679977417E-001,-4.433438479900360E-001,-2.906510978937149E-002,8.469158411026001E-002,-8.780592679977417E-001,-4.433438479900360E-001,
8.824333333333334E+008,-2.087351493537426E-002,8.611142635345459E-002,-8.961096405982971E-001,-4.184486269950867E-001,-2.087351493537426E-002,8.611142635345459E-002,-8.961096405982971E-001,-4.184486269950867E-001,
8.908000000000000E+008,-1.273735426366329E-002,8.252101391553879E-002,-9.098679423332214E-001,-4.004291594028473E-001,-1.273735426366329E-002,8.252101391553879E-002,-9.098679423332214E-001,-4.004291594028473E-001,
8.991666666666668E+008,-7.057838607579470E-003,7.634107023477554E-002,-9.094125032424927E-001,-3.726847767829895E-001,-7.057838607579470E-003,7.634107023477554E-002,-9.094125032424927E-001,-3.726847767829895E-001,
9.075333333333334E+008,-6.271735765039921E-003,6.908358633518219E-002,-9.235811233520508E-001,-3.477646708488464E-001,-6.271735765039921E-003,6.908358633518219E-002,-9.235811233520508E-001,-3.477646708488464E-001,
9.159000000000000E+008,-8.887023665010929E-003,6.328396499156952E-002,-9.442007541656494E-001,-3.220237195491791E-001,-8.887023665010929E-003,6.328396499156952E-002,-9.442007541656494E-001,-3.220237195491791E-001,
9.242666666666668E+008,-1.489606220275164E-002,6.370255351066589E-002,-9.356689453125000E-001,-3.000802397727966E-001,-1.489606220275164E-002,6.370255351066589E-002,-9.356689453125000E-001,-3.000802397727966E-001,
9.326333333333334E+008,-1.926312223076820E-002,6.626518070697784E-002,-9.512665271759033E-001,-2.852082252502441E-001,-1.926312223076820E-002,6.626518070697784E-002,-9.512665271759033E-001,-2.852082252502441E-001,
9.410000000000000E+008,-2.258236706256867E-002,7.092038542032242E-002,-9.608637094497681E-001,-2.488712370395660E-001,-2.258236706256867E-002,7.092038542032242E-002,-9.608637094497681E-001,-2.488712370395660E-001,
9.493666666666668E+008,-2.336139418184757E-002,8.047153800725937E-002,-9.648746252059937E-001,-2.181140035390854E-001,-2.336139418184757E-002,8.047153800725937E-002,-9.648746252059937E-001,-2.181140035390854E-001,
9.577333333333334E+008,-1.923835277557373E-002,9.064292162656784E-002,-9.706355929374695E-001,-2.044371217489243E-001,-1.923835277557373E-002,9.064292162656784E-002,-9.706355929374695E-001,-2.044371217489243E-001,
9.661000000000000E+008,-1.023887749761343E-002,9.749222546815872E-002,-9.709041118621826E-001,-1.620926260948181E-001,-1.023887749761343E-002,9.749222546815872E-002,-9.709041118621826E-001,-1.620926260948181E-001,
9.744666666666668E+008,6.734087364748120E-004,9.744092822074890E-002,-9.680403470993042E-001,-1.525263786315918E-001,6.734087364748120E-004,9.744092822074890E-002,-9.680403470993042E-001,-1.525263786315918E-001,
9.828333333333334E+008,9.867412038147450E-003,9.845765680074692E-002,-9.834786057472229E-001,-1.320467293262482E-001,9.867412038147450E-003,9.845765680074692E-002,-9.834786057472229E-001,-1.320467293262482E-001,
9.912000000000000E+008,2.044644206762314E-002,9.175144881010056E-002,-9.809706807136536E-001,-1.102814227342606E-001,2.044644206762314E-002,9.175144881010056E-002,-9.809706807136536E-001,-1.102814227342606E-001,
9.995666666666668E+008,2.425254881381989E-002,8.384758234024048E-002,-9.924693107604981E-001,-7.332123070955277E-002,2.425254881381989E-002,8.384758234024048E-002,-9.924693107604981E-001,-7.332123070955277E-002,
1.007933333333333E+009,2.822898700833321E-002,7.406832277774811E-002,-1.006409049034119E+000,-5.582332238554955E-002,2.822898700833321E-002,7.406832277774811E-002,-1.006409049034119E+000,-5.582332238554955E-002,
1.016300000000000E+009,2.267191372811794E-002,6.798351556062698E-002,-9.927152991294861E-001,-2.941741421818733E-002,2.267191372811794E-002,6.798351556062698E-002,-9.927152991294861E-001,-2.941741421818733E-002,
1.024666666666667E+009,1.540987845510244E-002,6.426447629928589E-002,-9.877402782440186E-001,-2.811705693602562E-003,1.540987845510244E-002,6.426447629928589E-002,-9.877402782440186E-001,-2.811705693602562E-003,
1.033033333333333E+009,1.131600327789784E-002,6.918065249919891E-002,-9.941594600677490E-001,2.383039519190788E-002,1.131600327789784E-002,6.918065249919891E-002,-9.941594600677490E-001,2.383039519190788E-002,
1.041400000000000E+009,5.564250051975250E-003,7.447257637977600E-002,-9.935713410377502E-001,4.543858394026756E-002,5.564250051975250E-003,7.447257637977600E-002,-9.935713410377502E-001,4.543858394026756E-002,
1.049766666666667E+009,9.602617472410202E-003,8.387833088636398E-002,-9.784213304519653E-001,8.100072294473648E-002,9.602617472410202E-003,8.387833088636398E-002,-9.784213304519653E-001,8.100072294473648E-002,
1.058133333333333E+009,1.465900521725416E-002,9.333043545484543E-002,-9.793375134468079E-001,1.033660992980003E-001,1.465900521725416E-002,9.333043545484543E-002,-9.793375134468079E-001,1.033660992980003E-001,
1.066500000000000E+009,2.629177086055279E-002,9.751133620738983E-002,-9.934919476509094E-001,1.375961452722549E-001,2.629177086055279E-002,9.751133620738983E-002,-9.934919476509094E-001,1.375961452722549E-001,
1.074866666666667E+009,4.012239724397659E-002,9.585434943437576E-002,-9.865735173225403E-001,1.580371409654617E-001,4.012239724397659E-002,9.585434943437576E-002,-9.865735173225403E-001,1.580371409654617E-001,
1.083233333333334E+009,4.871513321995735E-002,8.769243955612183E-002,-9.697422981262207E-001,1.783706396818161E-001,4.871513321995735E-002,8.769243955612183E-002,-9.697422981262207E-001,1.783706396818161E-001,
1.091600000000000E+009,5.514517799019814E-002,7.671602070331574E-002,-9.522919654846191E-001,1.979253888130188E-001,5.514517799019814E-002,7.671602070331574E-002,-9.522919654846191E-001,1.979253888130188E-001,
1.099966666666667E+009,5.426182597875595E-002,6.300368160009384E-002,-9.467598795890808E-001,2.363558560609818E-001,5.426182597875595E-002,6.300368160009384E-002,-9.467598795890808E-001,2.363558560609818E-001,
1.108333333333334E+009,4.622587561607361E-002,5.489849671721458E-002,-9.471781253814697E-001,2.442665696144104E-001,4.622587561607361E-002,5.489849671721458E-002,-9.471781253814697E-001,2.442665696144104E-001,
1.116700000000000E+009,3.632636740803719E-002,5.163679271936417E-002,-9.395088553428650E-001,2.784106135368347E-001,3.632636740803719E-002,5.163679271936417E-002,-9.395088553428650E-001,2.784106135368347E-001,
1.125066666666667E+009,2.625159360468388E-002,5.625226721167564E-002,-9.391249418258667E-001,2.954340279102325E-001,2.625159360468388E-002,5.625226721167564E-002,-9.391249418258667E-001,2.954340279102325E-001,
1.133433333333334E+009,1.963013969361782E-002,6.591508537530899E-002,-9.356106519699097E-001,3.405569791793823E-001,1.963013969361782E-002,6.591508537530899E-002,-9.356106519699097E-001,3.405569791793823E-001,
1.141800000000000E+009,1.980067044496536E-002,7.929727435112000E-002,-9.113414287567139E-001,3.549960255622864E-001,1.980067044496536E-002,7.929727435112000E-002,-9.113414287567139E-001,3.549960255622864E-001,
1.150166666666667E+009,2.986585162580013E-002,9.319909662008286E-002,-9.025883078575134E-001,3.555349409580231E-001,2.986585162580013E-002,9.319909662008286E-002,-9.025883078575134E-001,3.555349409580231E-001,
1.158533333333334E+009,4.691883549094200E-002,9.977958351373673E-002,-8.938491940498352E-001,3.948830664157867E-001,4.691883549094200E-002,9.977958351373673E-002,-8.938491940498352E-001,3.948830664157867E-001,
1.166900000000000E+009,6.661023944616318E-002,9.911523759365082E-002,-8.770185112953186E-001,4.151432514190674E-001,6.661023944616318E-002,9.911523759365082E-002,-8.770185112953186E-001,4.151432514190674E-001,
1.175266666666667E+009,8.220876008272171E-002,8.781129121780396E-002,-8.717576265335083E-001,4.442559182643890E-001,8.220876008272171E-002,8.781129121780396E-002,-8.717576265335083E-001,4.442559182643890E-001,
1.183633333333334E+009,9.370224177837372E-002,7.255183160305023E-002,-8.689116239547730E-001,4.557111561298370E-001,9.370224177837372E-002,7.255183160305023E-002,-8.689116239547730E-001,4.557111561298370E-001,
1.192000000000000E+009,9.316224604845047E-002,5.360573157668114E-002,-8.563716411590576E-001,4.775887727737427E-001,9.316224604845047E-002,5.360573157668114E-002,-8.563716411590576E-001,4.775887727737427E-001,
1.200366666666667E+009,8.330699801445007E-002,3.704723715782166E-002,-8.435257673263550E-001,4.993775486946106E-001,8.330699801445007E-002,3.704723715782166E-002,-8.435257673263550E-001,4.993775486946106E-001,
1.208733333333334E+009,6.858003139495850E-002,2.826967462897301E-002,-8.359500169754028E-001,5.414645671844482E-001,6.858003139495850E-002,2.826967462897301E-002,-8.359500169754028E-001,5.414645671844482E-001,
1.217100000000000E+009,5.326574295759201E-002,2.923389337956905E-002,-8.310679793357849E-001,5.522557497024536E-001,5.326574295759201E-002,2.923389337956905E-002,-8.310679793357849E-001,5.522557497024536E-001,
1.225466666666667E+009,4.211105778813362E-002,4.033245518803597E-002,-7.975867390632629E-001,5.765690207481384E-001,4.211105778813362E-002,4.033245518803597E-002,-7.975867390632629E-001,5.765690207481384E-001,
1.233833333333334E+009,3.910239040851593E-002,5.659920349717140E-002,-7.920718789100647E-001,5.883433818817139E-001,3.910239040851593E-002,5.659920349717140E-002,-7.920718789100647E-001,5.883433818817139E-001,
1.242200000000000E+009,4.900966957211494E-002,7.032653689384460E-002,-7.653965353965759E-001,6.209735274314880E-001,4.900966957211494E-002,7.032653689384460E-002,-7.653965353965759E-001,6.209735274314880E-001,
1.250566666666667E+009,6.343851983547211E-002,7.957451045513153E-002,-7.434058189392090E-001,6.254800558090210E-001,6.343851983547211E-002,7.957451045513153E-002,-7.434058189392090E-001,6.254800558090210E-001,
1.258933333333334E+009,8.437211066484451E-002,7.878880202770233E-002,-7.368621230125427E-001,6.469579339027405E-001,8.437211066484451E-002,7.878880202770233E-002,-7.368621230125427E-001,6.469579339027405E-001,
1.267300000000000E+009,1.042529866099358E-001,6.714617460966110E-002,-7.177883386611939E-001,6.604012846946716E-001,1.042529866099358E-001,6.714617460966110E-002,-7.177883386611939E-001,6.604012846946716E-001,
1.275666666666667E+009,1.129360869526863E-001,4.877009242773056E-002,-7.054849863052368E-001,6.677035093307495E-001,1.129360869526863E-001,4.877009242773056E-002,-7.054849863052368E-001,6.677035093307495E-001,
1.284033333333334E+009,1.144733205437660E-001,2.733822353184223E-002,-6.887723207473755E-001,7.096158862113953E-001,1.144733205437660E-001,2.733822353184223E-002,-6.887723207473755E-001,7.096158862113953E-001,
1.292400000000000E+009,1.037225946784020E-001,8.663249202072620E-003,-6.771499514579773E-001,7.136648297309876E-001,1.037225946784020E-001,8.663249202072620E-003,-6.771499514579773E-001,7.136648297309876E-001,
1.300766666666667E+009,8.403544127941132E-002,3.167993563693017E-004,-6.542424559593201E-001,7.375907301902771E-001,8.403544127941132E-002,3.167993563693017E-004,-6.542424559593201E-001,7.375907301902771E-001,
1.309133333333334E+009,6.414319574832916E-002,1.549009815789759E-003,-6.286716461181641E-001,7.515334486961365E-001,6.414319574832916E-002,1.549009815789759E-003,-6.286716461181641E-001,7.515334486961365E-001,
1.317500000000000E+009,5.032647401094437E-002,1.340742595493794E-002,-6.150198578834534E-001,7.827175259590149E-001,5.032647401094437E-002,1.340742595493794E-002,-6.150198578834534E-001,7.827175259590149E-001,
1.325866666666667E+009,4.697650298476219E-002,2.996149286627770E-002,-5.947446227073669E-001,7.965649366378784E-001,4.697650298476219E-002,2.996149286627770E-002,-5.947446227073669E-001,7.965649366378784E-001,
1.334233333333334E+009,5.656529963016510E-002,4.646792635321617E-002,-5.755489468574524E-001,8.021926879882813E-001,5.656529963016510E-002,4.646792635321617E-002,-5.755489468574524E-001,8.021926879882813E-001,
1.342600000000000E+009,7.323411852121353E-002,5.418278649449348E-002,-5.573455691337585E-001,8.186062574386597E-001,7.323411852121353E-002,5.418278649449348E-002,-5.573455691337585E-001,8.186062574386597E-001,
1.350966666666667E+009,9.419619292020798E-002,4.996753484010696E-002,-5.305503010749817E-001,8.299965262413025E-001,9.419619292020798E-002,4.996753484010696E-002,-5.305503010749817E-001,8.299965262413025E-001,
1.359333333333334E+009,1.093050763010979E-001,3.562231734395027E-002,-5.175936818122864E-001,8.289805650711060E-001,1.093050763010979E-001,3.562231734395027E-002,-5.175936818122864E-001,8.289805650711060E-001,
1.367700000000000E+009,1.148054674267769E-001,1.545388251543045E-002,-4.837132096290588E-001,8.467658162117004E-001,1.148054674267769E-001,1.545388251543045E-002,-4.837132096290588E-001,8.467658162117004E-001,
1.376066666666667E+009,1.108157336711884E-001,-7.142875809222460E-003,-4.682931303977966E-001,8.556050658226013E-001,1.108157336711884E-001,-7.142875809222460E-003,-4.682931303977966E-001,8.556050658226013E-001,
1.384433333333334E+009,9.330162405967712E-002,-2.215227484703064E-002,-4.527944922447205E-001,8.860839605331421E-001,9.330162405967712E-002,-2.215227484703064E-002,-4.527944922447205E-001,8.860839605331421E-001,
1.392800000000000E+009,7.253858447074890E-002,-2.418029680848122E-002,-4.314366579055786E-001,8.949447870254517E-001,7.253858447074890E-002,-2.418029680848122E-002,-4.314366579055786E-001,8.949447870254517E-001,
1.401166666666667E+009,5.230290442705154E-002,-1.649826206266880E-002,-4.047081172466278E-001,9.018982648849487E-001,5.230290442705154E-002,-1.649826206266880E-002,-4.047081172466278E-001,9.018982648849487E-001,
1.409533333333334E+009,3.937735036015511E-002,3.120344190392643E-004,-3.739140927791596E-001,9.160380959510803E-001,3.937735036015511E-002,3.120344190392643E-004,-3.739140927791596E-001,9.160380959510803E-001,
1.417900000000000E+009,4.151744768023491E-002,2.290100790560246E-002,-3.538464605808258E-001,9.120360016822815E-001,4.151744768023491E-002,2.290100790560246E-002,-3.538464605808258E-001,9.120360016822815E-001,
1.426266666666667E+009,5.336273834109306E-002,3.853030502796173E-002,-3.155782520771027E-001,9.365388751029968E-001,5.336273834109306E-002,3.853030502796173E-002,-3.155782520771027E-001,9.365388751029968E-001,
1.434633333333334E+009,7.463853806257248E-002,4.504629224538803E-002,-3.060522079467773E-001,9.301580190658569E-001,7.463853806257248E-002,4.504629224538803E-002,-3.060522079467773E-001,9.301580190658569E-001,
1.443000000000000E+009,9.559580683708191E-002,4.036549851298332E-002,-2.811833918094635E-001,9.372027516365051E-001,9.559580683708191E-002,4.036549851298332E-002,-2.811833918094635E-001,9.372027516365051E-001,
1.451366666666667E+009,1.114783734083176E-001,2.331469580531120E-002,-2.552182674407959E-001,9.364049434661865E-001,1.114783734083176E-001,2.331469580531120E-002,-2.552182674407959E-001,9.364049434661865E-001,
1.459733333333334E+009,1.176365017890930E-001,2.124329097568989E-003,-2.286324203014374E-001,9.625225663185120E-001,1.176365017890930E-001,2.124329097568989E-003,-2.286324203014374E-001,9.625225663185120E-001,
