% Version 1.00
%
%freq[Hz],re:Trc1_S11,im:Trc1_S11,re:Trc2_S21,im:Trc2_S21,re:Trc3_S11,im:Trc3_S11,re:Trc4_S21,im:Trc4_S21,
6.900000000000000E+008,-4.502563923597336E-002,3.554650768637657E-002,-4.989642500877380E-001,-8.530902862548828E-001,-4.502563923597336E-002,3.554650768637657E-002,-4.989642500877380E-001,-8.530902862548828E-001,
6.983666666666666E+008,-3.706943616271019E-002,3.588948026299477E-002,-5.242967605590820E-001,-8.424355983734131E-001,-3.706943616271019E-002,3.588948026299477E-002,-5.242967605590820E-001,-8.424355983734131E-001,
7.067333333333334E+008,-3.098375722765923E-002,3.140098229050636E-002,-5.472732186317444E-001,-8.167765140533447E-001,-3.098375722765923E-002,3.140098229050636E-002,-5.472732186317444E-001,-8.167765140533447E-001,
7.151000000000000E+008,-3.037968650460243E-002,2.383340895175934E-002,-5.821306705474854E-001,-8.149496316909790E-001,-3.037968650460243E-002,2.383340895175934E-002,-5.821306705474854E-001,-8.149496316909790E-001,
7.234666666666666E+008,-3.200018778443337E-002,1.877242140471935E-002,-5.954142808914185E-001,-7.997309565544128E-001,-3.200018778443337E-002,1.877242140471935E-002,-5.954142808914185E-001,-7.997309565544128E-001,
7.318333333333334E+008,-3.906763345003128E-002,1.656983792781830E-002,-6.126202940940857E-001,-7.824369072914124E-001,-3.906763345003128E-002,1.656983792781830E-002,-6.126202940940857E-001,-7.824369072914124E-001,
7.402000000000000E+008,-4.510754719376564E-002,1.853037998080254E-002,-6.235046982765198E-001,-7.573706507682800E-001,-4.510754719376564E-002,1.853037998080254E-002,-6.235046982765198E-001,-7.573706507682800E-001,
7.485666666666666E+008,-5.040502548217773E-002,2.545520663261414E-002,-6.535353660583496E-001,-7.446857690811157E-001,-5.040502548217773E-002,2.545520663261414E-002,-6.535353660583496E-001,-7.446857690811157E-001,
7.569333333333334E+008,-5.443136394023895E-002,3.504497930407524E-002,-6.719951033592224E-001,-7.312260270118713E-001,-5.443136394023895E-002,3.504497930407524E-002,-6.719951033592224E-001,-7.312260270118713E-001,
7.653000000000000E+008,-4.935479909181595E-002,4.370757564902306E-002,-6.795053482055664E-001,-7.119752168655396E-001,-4.935479909181595E-002,4.370757564902306E-002,-6.795053482055664E-001,-7.119752168655396E-001,
7.736666666666666E+008,-4.348929971456528E-002,5.005060136318207E-002,-6.923276782035828E-001,-7.085826992988586E-001,-4.348929971456528E-002,5.005060136318207E-002,-6.923276782035828E-001,-7.085826992988586E-001,
7.820333333333334E+008,-3.524293005466461E-002,5.378064885735512E-002,-7.260220646858215E-001,-6.805452108383179E-001,-3.524293005466461E-002,5.378064885735512E-002,-7.260220646858215E-001,-6.805452108383179E-001,
7.904000000000000E+008,-2.562418207526207E-002,5.241250619292259E-002,-7.349238991737366E-001,-6.618903279304504E-001,-2.562418207526207E-002,5.241250619292259E-002,-7.349238991737366E-001,-6.618903279304504E-001,
7.987666666666666E+008,-2.149329148232937E-002,4.696009308099747E-002,-7.406463027000427E-001,-6.458855867385864E-001,-2.149329148232937E-002,4.696009308099747E-002,-7.406463027000427E-001,-6.458855867385864E-001,
8.071333333333334E+008,-1.939865946769714E-002,4.039315506815910E-002,-7.672111988067627E-001,-6.142552495002747E-001,-1.939865946769714E-002,4.039315506815910E-002,-7.672111988067627E-001,-6.142552495002747E-001,
8.155000000000000E+008,-2.214489504694939E-002,3.335154056549072E-002,-7.935833334922791E-001,-6.032370328903198E-001,-2.214489504694939E-002,3.335154056549072E-002,-7.935833334922791E-001,-6.032370328903198E-001,
8.238666666666666E+008,-2.841646037995815E-002,3.140738606452942E-002,-8.000331521034241E-001,-5.799954533576965E-001,-2.841646037995815E-002,3.140738606452942E-002,-8.000331521034241E-001,-5.799954533576965E-001,
8.322333333333334E+008,-3.359548375010490E-002,3.285722434520721E-002,-8.094226717948914E-001,-5.619720816612244E-001,-3.359548375010490E-002,3.285722434520721E-002,-8.094226717948914E-001,-5.619720816612244E-001,
8.406000000000000E+008,-3.812479227781296E-002,3.603029996156693E-002,-8.213348984718323E-001,-5.397137403488159E-001,-3.812479227781296E-002,3.603029996156693E-002,-8.213348984718323E-001,-5.397137403488159E-001,
8.489666666666668E+008,-3.970313444733620E-002,4.718882218003273E-002,-8.335393667221069E-001,-5.106752514839172E-001,-3.970313444733620E-002,4.718882218003273E-002,-8.335393667221069E-001,-5.106752514839172E-001,
8.573333333333334E+008,-3.785318881273270E-002,5.500156804919243E-002,-8.358420133590698E-001,-4.800378978252411E-001,-3.785318881273270E-002,5.500156804919243E-002,-8.358420133590698E-001,-4.800378978252411E-001,
8.657000000000000E+008,-3.289458900690079E-002,6.257993727922440E-002,-8.635988235473633E-001,-4.843717813491821E-001,-3.289458900690079E-002,6.257993727922440E-002,-8.635988235473633E-001,-4.843717813491821E-001,
8.740666666666668E+008,-2.429865486919880E-002,6.752137839794159E-002,-8.695321679115295E-001,-4.597519040107727E-001,-2.429865486919880E-002,6.752137839794159E-002,-8.695321679115295E-001,-4.597519040107727E-001,
8.824333333333334E+008,-1.654363982379437E-002,6.878000497817993E-002,-8.880233168601990E-001,-4.356916844844818E-001,-1.654363982379437E-002,6.878000497817993E-002,-8.880233168601990E-001,-4.356916844844818E-001,
8.908000000000000E+008,-8.876123465597630E-003,6.500076502561569E-002,-9.016339778900147E-001,-4.181613922119141E-001,-8.876123465597630E-003,6.500076502561569E-002,-9.016339778900147E-001,-4.181613922119141E-001,
8.991666666666668E+008,-3.670707810670137E-003,5.887590348720551E-002,-9.015969634056091E-001,-3.907160758972168E-001,-3.670707810670137E-003,5.887590348720551E-002,-9.015969634056091E-001,-3.907160758972168E-001,
9.075333333333334E+008,-3.364256117492914E-003,5.117214843630791E-002,-9.159855246543884E-001,-3.655995726585388E-001,-3.364256117492914E-003,5.117214843630791E-002,-9.159855246543884E-001,-3.655995726585388E-001,
9.159000000000000E+008,-5.909251980483532E-003,4.527217522263527E-002,-9.372780323028565E-001,-3.411465585231781E-001,-5.909251980483532E-003,4.527217522263527E-002,-9.372780323028565E-001,-3.411465585231781E-001,
9.242666666666668E+008,-1.232374180108309E-002,4.534590989351273E-002,-9.287852048873901E-001,-3.191490471363068E-001,-1.232374180108309E-002,4.534590989351273E-002,-9.287852048873901E-001,-3.191490471363068E-001,
9.326333333333334E+008,-1.699166744947434E-002,4.746046662330627E-002,-9.446772336959839E-001,-3.052482008934021E-001,-1.699166744947434E-002,4.746046662330627E-002,-9.446772336959839E-001,-3.052482008934021E-001,
9.410000000000000E+008,-2.080816961824894E-002,5.176578834652901E-002,-9.552648663520813E-001,-2.692808806896210E-001,-2.080816961824894E-002,5.176578834652901E-002,-9.552648663520813E-001,-2.692808806896210E-001,
9.493666666666668E+008,-2.227536775171757E-002,6.100729852914810E-002,-9.599530100822449E-001,-2.389600276947022E-001,-2.227536775171757E-002,6.100729852914810E-002,-9.599530100822449E-001,-2.389600276947022E-001,
9.577333333333334E+008,-1.881821453571320E-002,7.076109945774078E-002,-9.661075472831726E-001,-2.252439707517624E-001,-1.881821453571320E-002,7.076109945774078E-002,-9.661075472831726E-001,-2.252439707517624E-001,
9.661000000000000E+008,-1.046864874660969E-002,7.745976001024246E-002,-9.670580625534058E-001,-1.834529936313629E-001,-1.046864874660969E-002,7.745976001024246E-002,-9.670580625534058E-001,-1.834529936313629E-001,
9.744666666666668E+008,-2.365228574490175E-004,7.778604328632355E-002,-9.651415944099426E-001,-1.732433587312698E-001,-2.365228574490175E-004,7.778604328632355E-002,-9.651415944099426E-001,-1.732433587312698E-001,
9.828333333333334E+008,8.420048281550407E-003,7.877065241336823E-002,-9.809685945510864E-001,-1.534711122512817E-001,8.420048281550407E-003,7.877065241336823E-002,-9.809685945510864E-001,-1.534711122512817E-001,
9.912000000000000E+008,1.850662752985954E-002,7.226504385471344E-002,-9.783995151519775E-001,-1.314836740493774E-001,1.850662752985954E-002,7.226504385471344E-002,-9.783995151519775E-001,-1.314836740493774E-001,
9.995666666666668E+008,2.196152321994305E-002,6.433919072151184E-002,-9.910455942153931E-001,-9.482813626527786E-002,2.196152321994305E-002,6.433919072151184E-002,-9.910455942153931E-001,-9.482813626527786E-002,
1.007933333333333E+009,2.552973292768002E-002,5.464015528559685E-002,-1.004606604576111E+000,-7.701582461595535E-002,2.552973292768002E-002,5.464015528559685E-002,-1.004606604576111E+000,-7.701582461595535E-002,
1.016300000000000E+009,1.967628486454487E-002,4.845348000526428E-002,-9.910734891891480E-001,-5.124996975064278E-002,1.967628486454487E-002,4.845348000526428E-002,-9.910734891891480E-001,-5.124996975064278E-002,
1.024666666666667E+009,1.245581731200218E-002,4.446102678775787E-002,-9.869354367256165E-001,-2.517951466143131E-002,1.245581731200218E-002,4.446102678775787E-002,-9.869354367256165E-001,-2.517951466143131E-002,
1.033033333333333E+009,7.907767780125141E-003,4.896309971809387E-002,-9.937195181846619E-001,1.045387587510049E-003,7.907767780125141E-003,4.896309971809387E-002,-9.937195181846619E-001,1.045387587510049E-003,
1.041400000000000E+009,1.647459226660430E-003,5.386452376842499E-002,-9.934671521186829E-001,2.203479781746864E-002,1.647459226660430E-003,5.386452376842499E-002,-9.934671521186829E-001,2.203479781746864E-002,
1.049766666666667E+009,4.851172212511301E-003,6.336417049169540E-002,-9.794577360153198E-001,5.820543691515923E-002,4.851172212511301E-003,6.336417049169540E-002,-9.794577360153198E-001,5.820543691515923E-002,
1.058133333333333E+009,8.934762328863144E-003,7.248018682003021E-002,-9.813708066940308E-001,8.002781867980957E-002,8.934762328863144E-003,7.248018682003021E-002,-9.813708066940308E-001,8.002781867980957E-002,
1.066500000000000E+009,1.977152936160564E-002,7.679919898509979E-002,-9.963968396186829E-001,1.139544621109963E-001,1.977152936160564E-002,7.679919898509979E-002,-9.963968396186829E-001,1.139544621109963E-001,
1.074866666666667E+009,3.268563374876976E-002,7.570164650678635E-002,-9.901688098907471E-001,1.342636644840241E-001,3.268563374876976E-002,7.570164650678635E-002,-9.901688098907471E-001,1.342636644840241E-001,
1.083233333333334E+009,4.074884578585625E-002,6.774421781301498E-002,-9.735241532325745E-001,1.554179936647415E-001,4.074884578585625E-002,6.774421781301498E-002,-9.735241532325745E-001,1.554179936647415E-001,
1.091600000000000E+009,4.678416624665260E-002,5.716795101761818E-002,-9.562134146690369E-001,1.752323061227799E-001,4.678416624665260E-002,5.716795101761818E-002,-9.562134146690369E-001,1.752323061227799E-001,
1.099966666666667E+009,4.565192386507988E-002,4.356424137949944E-002,-9.515989422798157E-001,2.133738845586777E-001,4.565192386507988E-002,4.356424137949944E-002,-9.515989422798157E-001,2.133738845586777E-001,
1.108333333333334E+009,3.755421936511993E-002,3.527275845408440E-002,-9.513787627220154E-001,2.213310897350311E-001,3.755421936511993E-002,3.527275845408440E-002,-9.513787627220154E-001,2.213310897350311E-001,
1.116700000000000E+009,2.736348286271095E-002,3.164881467819214E-002,-9.442372322082520E-001,2.549846768379211E-001,2.736348286271095E-002,3.164881467819214E-002,-9.442372322082520E-001,2.549846768379211E-001,
1.125066666666667E+009,1.665043085813522E-002,3.582169860601425E-002,-9.451406598091126E-001,2.715023458003998E-001,1.665043085813522E-002,3.582169860601425E-002,-9.451406598091126E-001,2.715023458003998E-001,
1.133433333333334E+009,9.250911884009838E-003,4.530426114797592E-002,-9.426621198654175E-001,3.164965510368347E-001,9.250911884009838E-003,4.530426114797592E-002,-9.426621198654175E-001,3.164965510368347E-001,
1.141800000000000E+009,8.259994909167290E-003,5.853412672877312E-002,-9.200816750526428E-001,3.307125270366669E-001,8.259994909167290E-003,5.853412672877312E-002,-9.200816750526428E-001,3.307125270366669E-001,
1.150166666666667E+009,1.737710088491440E-002,7.284602522850037E-002,-9.110242128372192E-001,3.316329121589661E-001,1.737710088491440E-002,7.284602522850037E-002,-9.110242128372192E-001,3.316329121589661E-001,
1.158533333333334E+009,3.313438594341278E-002,8.002068102359772E-002,-9.039720892906189E-001,3.719826936721802E-001,3.313438594341278E-002,8.002068102359772E-002,-9.039720892906189E-001,3.719826936721802E-001,
1.166900000000000E+009,5.195532739162445E-002,8.026042580604553E-002,-8.875766992568970E-001,3.923160433769226E-001,5.195532739162445E-002,8.026042580604553E-002,-8.875766992568970E-001,3.923160433769226E-001,
1.175266666666667E+009,6.737290322780609E-002,6.984326988458633E-002,-8.820600509643555E-001,4.218962192535400E-001,6.737290322780609E-002,6.984326988458633E-002,-8.820600509643555E-001,4.218962192535400E-001,
1.183633333333334E+009,7.883585244417191E-002,5.541201680898666E-002,-8.805125355720520E-001,4.337709844112396E-001,7.883585244417191E-002,5.541201680898666E-002,-8.805125355720520E-001,4.337709844112396E-001,
1.192000000000000E+009,7.840794324874878E-002,3.677649423480034E-002,-8.677612543106079E-001,4.563394486904144E-001,7.840794324874878E-002,3.677649423480034E-002,-8.677612543106079E-001,4.563394486904144E-001,
1.200366666666667E+009,6.874101608991623E-002,2.021098881959915E-002,-8.548687696456909E-001,4.776951372623444E-001,6.874101608991623E-002,2.021098881959915E-002,-8.548687696456909E-001,4.776951372623444E-001,
1.208733333333334E+009,5.383117869496346E-002,1.106056105345488E-002,-8.480830788612366E-001,5.193938612937927E-001,5.383117869496346E-002,1.106056105345488E-002,-8.480830788612366E-001,5.193938612937927E-001,
1.217100000000000E+009,3.806893900036812E-002,1.183212827891111E-002,-8.439322710037231E-001,5.292260646820068E-001,3.806893900036812E-002,1.183212827891111E-002,-8.439322710037231E-001,5.292260646820068E-001,
1.225466666666667E+009,2.590715698897839E-002,2.219958044588566E-002,-8.118420839309692E-001,5.540411472320557E-001,2.590715698897839E-002,2.219958044588566E-002,-8.118420839309692E-001,5.540411472320557E-001,
1.233833333333334E+009,2.167389728128910E-002,3.837399557232857E-002,-8.069739937782288E-001,5.653685331344605E-001,2.167389728128910E-002,3.837399557232857E-002,-8.069739937782288E-001,5.653685331344605E-001,
1.242200000000000E+009,3.021646104753017E-002,5.264698714017868E-002,-7.816592454910278E-001,5.991302132606506E-001,3.021646104753017E-002,5.264698714017868E-002,-7.816592454910278E-001,5.991302132606506E-001,
1.250566666666667E+009,4.341919347643852E-002,6.281886249780655E-002,-7.604366540908814E-001,6.046270132064819E-001,4.341919347643852E-002,6.281886249780655E-002,-7.604366540908814E-001,6.046270132064819E-001,
1.258933333333334E+009,6.393501162528992E-002,6.325407326221466E-002,-7.549923658370972E-001,6.268774271011353E-001,6.393501162528992E-002,6.325407326221466E-002,-7.549923658370972E-001,6.268774271011353E-001,
1.267300000000000E+009,8.331754058599472E-002,5.288053676486015E-002,-7.359820008277893E-001,6.411374211311340E-001,8.331754058599472E-002,5.288053676486015E-002,-7.359820008277893E-001,6.411374211311340E-001,
1.275666666666667E+009,9.220685064792633E-002,3.530031442642212E-002,-7.235614657402039E-001,6.489260196685791E-001,9.220685064792633E-002,3.530031442642212E-002,-7.235614657402039E-001,6.489260196685791E-001,
1.284033333333334E+009,9.414023905992508E-002,1.447801105678082E-002,-7.075645327568054E-001,6.913290023803711E-001,9.414023905992508E-002,1.447801105678082E-002,-7.075645327568054E-001,6.913290023803711E-001,
1.292400000000000E+009,8.348091691732407E-002,-4.138456657528877E-003,-6.952564120292664E-001,6.946032047271729E-001,8.348091691732407E-002,-4.138456657528877E-003,-6.952564120292664E-001,6.946032047271729E-001,
1.300766666666667E+009,6.380499899387360E-002,-1.277361623942852E-002,-6.727131009101868E-001,7.186020016670227E-001,6.380499899387360E-002,-1.277361623942852E-002,-6.727131009101868E-001,7.186020016670227E-001,
1.309133333333334E+009,4.340939223766327E-002,-1.178365945816040E-002,-6.482594609260559E-001,7.330130934715271E-001,4.340939223766327E-002,-1.178365945816040E-002,-6.482594609260559E-001,7.330130934715271E-001,
1.317500000000000E+009,2.882269583642483E-002,-3.248247958254069E-004,-6.360233426094055E-001,7.632802724838257E-001,2.882269583642483E-002,-3.248247958254069E-004,-6.360233426094055E-001,7.632802724838257E-001,
1.325866666666667E+009,2.423320338129997E-002,1.612306386232376E-002,-6.164323687553406E-001,7.784101366996765E-001,2.423320338129997E-002,1.612306386232376E-002,-6.164323687553406E-001,7.784101366996765E-001,
1.334233333333334E+009,3.251593559980393E-002,3.341031447052956E-002,-5.981046557426453E-001,7.841644883155823E-001,3.251593559980393E-002,3.341031447052956E-002,-5.981046557426453E-001,7.841644883155823E-001,
1.342600000000000E+009,4.830685630440712E-002,4.226737096905708E-002,-5.805248618125916E-001,8.015725016593933E-001,4.830685630440712E-002,4.226737096905708E-002,-5.805248618125916E-001,8.015725016593933E-001,
1.350966666666667E+009,6.873314827680588E-002,3.952701017260552E-002,-5.545379519462585E-001,8.141368627548218E-001,6.873314827680588E-002,3.952701017260552E-002,-5.545379519462585E-001,8.141368627548218E-001,
1.359333333333334E+009,8.393412828445435E-002,2.627198770642281E-002,-5.414873361587524E-001,8.134763240814209E-001,8.393412828445435E-002,2.627198770642281E-002,-5.414873361587524E-001,8.134763240814209E-001,
1.367700000000000E+009,8.996047079563141E-002,6.779326125979424E-003,-5.076584219932556E-001,8.325335979461670E-001,8.996047079563141E-002,6.779326125979424E-003,-5.076584219932556E-001,8.325335979461670E-001,
1.376066666666667E+009,8.615270256996155E-002,-1.509975921362639E-002,-4.925005137920380E-001,8.417391180992127E-001,8.615270256996155E-002,-1.509975921362639E-002,-4.925005137920380E-001,8.417391180992127E-001,
1.384433333333334E+009,6.879793107509613E-002,-3.027855791151524E-002,-4.775461852550507E-001,8.721516728401184E-001,6.879793107509613E-002,-3.027855791151524E-002,-4.775461852550507E-001,8.721516728401184E-001,
1.392800000000000E+009,4.767457395792007E-002,-3.266556188464165E-002,-4.565409123897553E-001,8.805264234542847E-001,4.767457395792007E-002,-3.266556188464165E-002,-4.565409123897553E-001,8.805264234542847E-001,
1.401166666666667E+009,2.659559249877930E-002,-2.543950639665127E-002,-4.295973181724548E-001,8.876813054084778E-001,2.659559249877930E-002,-2.543950639665127E-002,-4.295973181724548E-001,8.876813054084778E-001,
1.409533333333334E+009,1.272430922836065E-002,-8.156382478773594E-003,-4.005511999130249E-001,9.024122953414917E-001,1.272430922836065E-002,-8.156382478773594E-003,-4.005511999130249E-001,9.024122953414917E-001,
1.417900000000000E+009,1.312486361712217E-002,1.475609466433525E-002,-3.811508715152741E-001,8.983414173126221E-001,1.312486361712217E-002,1.475609466433525E-002,-3.811508715152741E-001,8.983414173126221E-001,
1.426266666666667E+009,2.366015315055847E-002,3.136204183101654E-002,-3.446460366249085E-001,9.249114990234375E-001,2.366015315055847E-002,3.136204183101654E-002,-3.446460366249085E-001,9.249114990234375E-001,
1.434633333333334E+009,4.426494613289833E-002,3.951553255319595E-002,-3.348509967327118E-001,9.194379448890686E-001,4.426494613289833E-002,3.951553255319595E-002,-3.348509967327118E-001,9.194379448890686E-001,
1.443000000000000E+009,6.507652997970581E-002,3.664007782936096E-002,-3.105064928531647E-001,9.273570179939270E-001,6.507652997970581E-002,3.664007782936096E-002,-3.105064928531647E-001,9.273570179939270E-001,
1.451366666666667E+009,8.151125162839890E-002,2.104074321687222E-002,-2.846227884292603E-001,9.277303814888001E-001,8.151125162839890E-002,2.104074321687222E-002,-2.846227884292603E-001,9.277303814888001E-001,
1.459733333333334E+009,8.850199729204178E-002,8.980301790870726E-004,-2.589883208274841E-001,9.547907114028931E-001,8.850199729204178E-002,8.980301790870726E-004,-2.589883208274841E-001,9.547907114028931E-001,
