% Version 1.00
%
%freq[Hz],re:Trc1_S11,im:Trc1_S11,re:Trc2_S21,im:Trc2_S21,re:Trc3_S11,im:Trc3_S11,re:Trc4_S21,im:Trc4_S21,
6.900000000000000E+008,-5.224913358688355E-002,3.742024675011635E-002,-4.992216825485230E-001,-8.494004607200623E-001,-5.224913358688355E-002,3.742024675011635E-002,-4.992216825485230E-001,-8.494004607200623E-001,
6.983666666666666E+008,-4.347551614046097E-002,3.770812600851059E-002,-5.323345661163330E-001,-8.342754840850830E-001,-4.347551614046097E-002,3.770812600851059E-002,-5.323345661163330E-001,-8.342754840850830E-001,
7.067333333333334E+008,-3.814753517508507E-002,3.334485739469528E-002,-5.486394762992859E-001,-8.116315007209778E-001,-3.814753517508507E-002,3.334485739469528E-002,-5.486394762992859E-001,-8.116315007209778E-001,
7.151000000000000E+008,-3.709651157259941E-002,2.595617249608040E-002,-5.885996818542481E-001,-8.072568178176880E-001,-3.709651157259941E-002,2.595617249608040E-002,-5.885996818542481E-001,-8.072568178176880E-001,
7.234666666666666E+008,-3.832273185253143E-002,2.116936072707176E-002,-5.999416708946228E-001,-7.981768250465393E-001,-3.832273185253143E-002,2.116936072707176E-002,-5.999416708946228E-001,-7.981768250465393E-001,
7.318333333333334E+008,-4.490137845277786E-002,1.922972314059734E-002,-6.199408769607544E-001,-7.710325717926025E-001,-4.490137845277786E-002,1.922972314059734E-002,-6.199408769607544E-001,-7.710325717926025E-001,
7.402000000000000E+008,-5.122521892189980E-002,2.137559838593006E-002,-6.253885030746460E-001,-7.505792975425720E-001,-5.122521892189980E-002,2.137559838593006E-002,-6.253885030746460E-001,-7.505792975425720E-001,
7.485666666666666E+008,-5.613070353865624E-002,2.942903526127338E-002,-6.583174467086792E-001,-7.390138506889343E-001,-5.613070353865624E-002,2.942903526127338E-002,-6.583174467086792E-001,-7.390138506889343E-001,
7.569333333333334E+008,-6.011395528912544E-002,3.905390575528145E-002,-6.784699559211731E-001,-7.246236801147461E-001,-6.011395528912544E-002,3.905390575528145E-002,-6.784699559211731E-001,-7.246236801147461E-001,
7.653000000000000E+008,-5.486911907792091E-002,4.836940765380859E-002,-6.782992482185364E-001,-7.086780071258545E-001,-5.486911907792091E-002,4.836940765380859E-002,-6.782992482185364E-001,-7.086780071258545E-001,
7.736666666666666E+008,-4.940482228994370E-002,5.506820976734161E-002,-6.958553194999695E-001,-7.031522393226624E-001,-4.940482228994370E-002,5.506820976734161E-002,-6.958553194999695E-001,-7.031522393226624E-001,
7.820333333333334E+008,-4.140077158808708E-002,5.906924232840538E-002,-7.294158339500427E-001,-6.720868945121765E-001,-4.140077158808708E-002,5.906924232840538E-002,-7.294158339500427E-001,-6.720868945121765E-001,
7.904000000000000E+008,-3.211280703544617E-002,5.816112086176872E-002,-7.390469312667847E-001,-6.558490395545960E-001,-3.211280703544617E-002,5.816112086176872E-002,-7.390469312667847E-001,-6.558490395545960E-001,
7.987666666666666E+008,-2.779338508844376E-002,5.268272757530212E-002,-7.440981268882752E-001,-6.394132375717163E-001,-2.779338508844376E-002,5.268272757530212E-002,-7.440981268882752E-001,-6.394132375717163E-001,
8.071333333333334E+008,-2.535769902169704E-002,4.632215574383736E-002,-7.739320397377014E-001,-6.043551564216614E-001,-2.535769902169704E-002,4.632215574383736E-002,-7.739320397377014E-001,-6.043551564216614E-001,
8.155000000000000E+008,-2.793719433248043E-002,3.905331343412399E-002,-7.958132028579712E-001,-5.958994030952454E-001,-2.793719433248043E-002,3.905331343412399E-002,-7.958132028579712E-001,-5.958994030952454E-001,
8.238666666666666E+008,-3.405011817812920E-002,3.738798573613167E-002,-8.011099696159363E-001,-5.690039396286011E-001,-3.405011817812920E-002,3.738798573613167E-002,-8.011099696159363E-001,-5.690039396286011E-001,
8.322333333333334E+008,-3.869910910725594E-002,3.921942412853241E-002,-8.119497299194336E-001,-5.539377331733704E-001,-3.869910910725594E-002,3.921942412853241E-002,-8.119497299194336E-001,-5.539377331733704E-001,
8.406000000000000E+008,-4.215952381491661E-002,4.279845207929611E-002,-8.242411017417908E-001,-5.344693064689636E-001,-4.215952381491661E-002,4.279845207929611E-002,-8.242411017417908E-001,-5.344693064689636E-001,
8.489666666666668E+008,-4.353550821542740E-002,5.419859290122986E-002,-8.346006870269775E-001,-5.011494159698486E-001,-4.353550821542740E-002,5.419859290122986E-002,-8.346006870269775E-001,-5.011494159698486E-001,
8.573333333333334E+008,-4.201642423868179E-002,6.280367821455002E-002,-8.377925753593445E-001,-4.694729447364807E-001,-4.201642423868179E-002,6.280367821455002E-002,-8.377925753593445E-001,-4.694729447364807E-001,
8.657000000000000E+008,-3.678787872195244E-002,7.055489718914032E-002,-8.650367856025696E-001,-4.797305762767792E-001,-3.678787872195244E-002,7.055489718914032E-002,-8.650367856025696E-001,-4.797305762767792E-001,
8.740666666666668E+008,-2.773109823465347E-002,7.579077780246735E-002,-8.727526068687439E-001,-4.498638212680817E-001,-2.773109823465347E-002,7.579077780246735E-002,-8.727526068687439E-001,-4.498638212680817E-001,
8.824333333333334E+008,-2.021332643926144E-002,7.807781547307968E-002,-8.883880972862244E-001,-4.263191521167755E-001,-2.021332643926144E-002,7.807781547307968E-002,-8.883880972862244E-001,-4.263191521167755E-001,
8.908000000000000E+008,-1.241711620241404E-002,7.395821809768677E-002,-9.005214571952820E-001,-4.079685509204865E-001,-1.241711620241404E-002,7.395821809768677E-002,-9.005214571952820E-001,-4.079685509204865E-001,
8.991666666666668E+008,-7.317038718611002E-003,6.803690642118454E-002,-9.010109305381775E-001,-3.826642334461212E-001,-7.317038718611002E-003,6.803690642118454E-002,-9.010109305381775E-001,-3.826642334461212E-001,
9.075333333333334E+008,-6.517087575048208E-003,6.039869785308838E-002,-9.150323271751404E-001,-3.545811772346497E-001,-6.517087575048208E-003,6.039869785308838E-002,-9.150323271751404E-001,-3.545811772346497E-001,
9.159000000000000E+008,-9.196780622005463E-003,5.387467518448830E-002,-9.361875653266907E-001,-3.310778737068176E-001,-9.196780622005463E-003,5.387467518448830E-002,-9.361875653266907E-001,-3.310778737068176E-001,
9.242666666666668E+008,-1.440390292555094E-002,5.409549549221993E-002,-9.279585480690002E-001,-3.094581365585327E-001,-1.440390292555094E-002,5.409549549221993E-002,-9.279585480690002E-001,-3.094581365585327E-001,
9.326333333333334E+008,-1.874643377959728E-002,5.607978999614716E-002,-9.445304274559021E-001,-2.934074699878693E-001,-1.874643377959728E-002,5.607978999614716E-002,-9.445304274559021E-001,-2.934074699878693E-001,
9.410000000000000E+008,-2.216622978448868E-002,6.063824146986008E-002,-9.569365382194519E-001,-2.576862573623657E-001,-2.216622978448868E-002,6.063824146986008E-002,-9.569365382194519E-001,-2.576862573623657E-001,
9.493666666666668E+008,-2.330134622752667E-002,7.059652358293533E-002,-9.581930637359619E-001,-2.282195836305618E-001,-2.330134622752667E-002,7.059652358293533E-002,-9.581930637359619E-001,-2.282195836305618E-001,
9.577333333333334E+008,-1.909943111240864E-002,8.111854642629623E-002,-9.623092412948608E-001,-2.152250856161118E-001,-1.909943111240864E-002,8.111854642629623E-002,-9.623092412948608E-001,-2.152250856161118E-001,
9.661000000000000E+008,-1.062896661460400E-002,8.834789693355560E-002,-9.636048078536987E-001,-1.740876585245132E-001,-1.062896661460400E-002,8.834789693355560E-002,-9.636048078536987E-001,-1.740876585245132E-001,
9.744666666666668E+008,-1.475817116443068E-004,8.919445425271988E-002,-9.605405926704407E-001,-1.650621443986893E-001,-1.475817116443068E-004,8.919445425271988E-002,-9.605405926704407E-001,-1.650621443986893E-001,
9.828333333333334E+008,8.811513893306255E-003,9.019975364208221E-002,-9.799561500549316E-001,-1.419599950313568E-001,8.811513893306255E-003,9.019975364208221E-002,-9.799561500549316E-001,-1.419599950313568E-001,
9.912000000000000E+008,1.991784758865833E-002,8.416720479726791E-002,-9.776782989501953E-001,-1.218781098723412E-001,1.991784758865833E-002,8.416720479726791E-002,-9.776782989501953E-001,-1.218781098723412E-001,
9.995666666666668E+008,2.307738736271858E-002,7.607892900705338E-002,-9.914790987968445E-001,-8.507639169692993E-002,2.307738736271858E-002,7.607892900705338E-002,-9.914790987968445E-001,-8.507639169692993E-002,
1.007933333333333E+009,2.687230333685875E-002,6.616272032260895E-002,-1.002467870712280E+000,-6.948819756507874E-002,2.687230333685875E-002,6.616272032260895E-002,-1.002467870712280E+000,-6.948819756507874E-002,
1.016300000000000E+009,2.131900377571583E-002,5.924183502793312E-002,-9.904568791389465E-001,-4.018178954720497E-002,2.131900377571583E-002,5.924183502793312E-002,-9.904568791389465E-001,-4.018178954720497E-002,
1.024666666666667E+009,1.419177558273077E-002,5.494214594364166E-002,-9.869414567947388E-001,-1.410371717065573E-002,1.419177558273077E-002,5.494214594364166E-002,-9.869414567947388E-001,-1.410371717065573E-002,
1.033033333333333E+009,1.025390625000000E-002,5.870495736598969E-002,-9.918255209922791E-001,9.854402393102646E-003,1.025390625000000E-002,5.870495736598969E-002,-9.918255209922791E-001,9.854402393102646E-003,
1.041400000000000E+009,4.131147172302008E-003,6.408796459436417E-002,-9.946900010108948E-001,3.176329284906387E-002,4.131147172302008E-003,6.408796459436417E-002,-9.946900010108948E-001,3.176329284906387E-002,
1.049766666666667E+009,8.128652349114418E-003,7.405281066894531E-002,-9.801401495933533E-001,6.974183022975922E-002,8.128652349114418E-003,7.405281066894531E-002,-9.801401495933533E-001,6.974183022975922E-002,
1.058133333333333E+009,1.302095502614975E-002,8.341824263334274E-002,-9.808200597763062E-001,8.978246897459030E-002,1.302095502614975E-002,8.341824263334274E-002,-9.808200597763062E-001,8.978246897459030E-002,
1.066500000000000E+009,2.472256869077683E-002,8.892396092414856E-002,-9.949816465377808E-001,1.239506676793098E-001,2.472256869077683E-002,8.892396092414856E-002,-9.949816465377808E-001,1.239506676793098E-001,
1.074866666666667E+009,3.820016980171204E-002,8.809579908847809E-002,-9.876847267150879E-001,1.425177454948425E-001,3.820016980171204E-002,8.809579908847809E-002,-9.876847267150879E-001,1.425177454948425E-001,
1.083233333333334E+009,4.715128615498543E-002,8.060359209775925E-002,-9.729467034339905E-001,1.672003269195557E-001,4.715128615498543E-002,8.060359209775925E-002,-9.729467034339905E-001,1.672003269195557E-001,
1.091600000000000E+009,5.371375381946564E-002,6.997730582952499E-002,-9.556291699409485E-001,1.841794997453690E-001,5.371375381946564E-002,6.997730582952499E-002,-9.556291699409485E-001,1.841794997453690E-001,
1.099966666666667E+009,5.296305567026138E-002,5.584708973765373E-002,-9.463585019111633E-001,2.239261865615845E-001,5.296305567026138E-002,5.584708973765373E-002,-9.463585019111633E-001,2.239261865615845E-001,
1.108333333333334E+009,4.491007700562477E-002,4.718660935759544E-002,-9.475993514060974E-001,2.350188791751862E-001,4.491007700562477E-002,4.718660935759544E-002,-9.475993514060974E-001,2.350188791751862E-001,
1.116700000000000E+009,3.455378860235214E-002,4.282190278172493E-002,-9.412581324577332E-001,2.658205330371857E-001,3.455378860235214E-002,4.282190278172493E-002,-9.412581324577332E-001,2.658205330371857E-001,
1.125066666666667E+009,2.427508868277073E-002,4.644171521067619E-002,-9.428189992904663E-001,2.805534899234772E-001,2.427508868277073E-002,4.644171521067619E-002,-9.428189992904663E-001,2.805534899234772E-001,
1.133433333333334E+009,1.691600494086742E-002,5.486542358994484E-002,-9.391226172447205E-001,3.265861272811890E-001,1.691600494086742E-002,5.486542358994484E-002,-9.391226172447205E-001,3.265861272811890E-001,
1.141800000000000E+009,1.688559539616108E-002,6.829366087913513E-002,-9.167729616165161E-001,3.423869907855988E-001,1.688559539616108E-002,6.829366087913513E-002,-9.167729616165161E-001,3.423869907855988E-001,
1.150166666666667E+009,2.637419104576111E-002,8.214231580495834E-002,-9.070009589195252E-001,3.396138250827789E-001,2.637419104576111E-002,8.214231580495834E-002,-9.070009589195252E-001,3.396138250827789E-001,
1.158533333333334E+009,4.330280795693398E-002,8.952153474092484E-002,-8.980289101600647E-001,3.794312179088593E-001,4.330280795693398E-002,8.952153474092484E-002,-8.980289101600647E-001,3.794312179088593E-001,
1.166900000000000E+009,6.330287456512451E-002,8.995573222637177E-002,-8.837987780570984E-001,4.030286669731140E-001,6.330287456512451E-002,8.995573222637177E-002,-8.837987780570984E-001,4.030286669731140E-001,
1.175266666666667E+009,7.877078652381897E-002,7.967523485422134E-002,-8.781458139419556E-001,4.294655919075012E-001,7.877078652381897E-002,7.967523485422134E-002,-8.781458139419556E-001,4.294655919075012E-001,
1.183633333333334E+009,9.087314456701279E-002,6.491867452859879E-002,-8.736568689346314E-001,4.452226459980011E-001,9.087314456701279E-002,6.491867452859879E-002,-8.736568689346314E-001,4.452226459980011E-001,
1.192000000000000E+009,9.097914397716522E-002,4.547835886478424E-002,-8.635863065719605E-001,4.686395823955536E-001,9.097914397716522E-002,4.547835886478424E-002,-8.635863065719605E-001,4.686395823955536E-001,
1.200366666666667E+009,8.046784996986389E-002,2.947673760354519E-002,-8.508305549621582E-001,4.859037995338440E-001,8.046784996986389E-002,2.947673760354519E-002,-8.508305549621582E-001,4.859037995338440E-001,
1.208733333333334E+009,6.593199074268341E-002,1.973880082368851E-002,-8.444609045982361E-001,5.285262465476990E-001,6.593199074268341E-002,1.973880082368851E-002,-8.444609045982361E-001,5.285262465476990E-001,
1.217100000000000E+009,4.997923225164414E-002,2.015608921647072E-002,-8.371360898017883E-001,5.408673286437988E-001,4.997923225164414E-002,2.015608921647072E-002,-8.371360898017883E-001,5.408673286437988E-001,
1.225466666666667E+009,3.834568336606026E-002,3.011198528110981E-002,-8.041795492172241E-001,5.620101094245911E-001,3.834568336606026E-002,3.011198528110981E-002,-8.041795492172241E-001,5.620101094245911E-001,
1.233833333333334E+009,3.453913331031799E-002,4.567877948284149E-002,-7.996512055397034E-001,5.758171081542969E-001,3.453913331031799E-002,4.567877948284149E-002,-7.996512055397034E-001,5.758171081542969E-001,
1.242200000000000E+009,4.451565071940422E-002,5.912177637219429E-002,-7.746306657791138E-001,6.048392653465271E-001,4.451565071940422E-002,5.912177637219429E-002,-7.746306657791138E-001,6.048392653465271E-001,
1.250566666666667E+009,5.816883966326714E-002,6.871385127305985E-002,-7.513619065284729E-001,6.163999438285828E-001,5.816883966326714E-002,6.871385127305985E-002,-7.513619065284729E-001,6.163999438285828E-001,
1.258933333333334E+009,7.893869280815125E-002,6.846681237220764E-002,-7.470016479492188E-001,6.384270191192627E-001,7.893869280815125E-002,6.846681237220764E-002,-7.470016479492188E-001,6.384270191192627E-001,
1.267300000000000E+009,1.004962399601936E-001,5.796967074275017E-002,-7.265632748603821E-001,6.493239402770996E-001,1.004962399601936E-001,5.796967074275017E-002,-7.265632748603821E-001,6.493239402770996E-001,
1.275666666666667E+009,1.095017939805985E-001,3.983336687088013E-002,-7.159395217895508E-001,6.574047207832336E-001,1.095017939805985E-001,3.983336687088013E-002,-7.159395217895508E-001,6.574047207832336E-001,
1.284033333333334E+009,1.115998327732086E-001,1.863376051187515E-002,-6.995056271553040E-001,6.996866464614868E-001,1.115998327732086E-001,1.863376051187515E-002,-6.995056271553040E-001,6.996866464614868E-001,
1.292400000000000E+009,1.001175716519356E-001,-2.478229580447078E-004,-6.854066848754883E-001,6.980323791503906E-001,1.001175716519356E-001,-2.478229580447078E-004,-6.854066848754883E-001,6.980323791503906E-001,
1.300766666666667E+009,8.028683811426163E-002,-9.702577255666256E-003,-6.641429662704468E-001,7.265160083770752E-001,8.028683811426163E-002,-9.702577255666256E-003,-6.641429662704468E-001,7.265160083770752E-001,
1.309133333333334E+009,5.954995378851891E-002,-8.623521775007248E-003,-6.413389444351196E-001,7.404225468635559E-001,5.954995378851891E-002,-8.623521775007248E-003,-6.413389444351196E-001,7.404225468635559E-001,
1.317500000000000E+009,4.497573524713516E-002,2.460978226736188E-003,-6.278988122940064E-001,7.705847620964050E-001,4.497573524713516E-002,2.460978226736188E-003,-6.278988122940064E-001,7.705847620964050E-001,
1.325866666666667E+009,4.013320431113243E-002,1.859265379607678E-002,-6.061476469039917E-001,7.847826480865479E-001,4.013320431113243E-002,1.859265379607678E-002,-6.061476469039917E-001,7.847826480865479E-001,
1.334233333333334E+009,4.919506236910820E-002,3.490724042057991E-002,-5.885145664215088E-001,7.919220328330994E-001,4.919506236910820E-002,3.490724042057991E-002,-5.885145664215088E-001,7.919220328330994E-001,
1.342600000000000E+009,6.518389284610748E-002,4.281939193606377E-002,-5.695807337760925E-001,8.086772561073303E-001,6.518389284610748E-002,4.281939193606377E-002,-5.695807337760925E-001,8.086772561073303E-001,
1.350966666666667E+009,8.624862134456635E-002,3.911554440855980E-002,-5.418339371681213E-001,8.197878003120422E-001,8.624862134456635E-002,3.911554440855980E-002,-5.418339371681213E-001,8.197878003120422E-001,
1.359333333333334E+009,1.017784774303436E-001,2.550818584859371E-002,-5.270782709121704E-001,8.222128152847290E-001,1.017784774303436E-001,2.550818584859371E-002,-5.270782709121704E-001,8.222128152847290E-001,
1.367700000000000E+009,1.085150837898254E-001,5.279582925140858E-003,-4.958862066268921E-001,8.385434150695801E-001,1.085150837898254E-001,5.279582925140858E-003,-4.958862066268921E-001,8.385434150695801E-001,
1.376066666666667E+009,1.056008785963059E-001,-1.679155044257641E-002,-4.804050326347351E-001,8.476403951644898E-001,1.056008785963059E-001,-1.679155044257641E-002,-4.804050326347351E-001,8.476403951644898E-001,
1.384433333333334E+009,8.748116344213486E-002,-3.201882913708687E-002,-4.687998294830322E-001,8.738148212432861E-001,8.748116344213486E-002,-3.201882913708687E-002,-4.687998294830322E-001,8.738148212432861E-001,
1.392800000000000E+009,6.657715886831284E-002,-3.464417159557343E-002,-4.474650323390961E-001,8.864237666130066E-001,6.657715886831284E-002,-3.464417159557343E-002,-4.474650323390961E-001,8.864237666130066E-001,
1.401166666666667E+009,4.566491767764092E-002,-2.776948735117912E-002,-4.181484878063202E-001,8.945277333259583E-001,4.566491767764092E-002,-2.776948735117912E-002,-4.181484878063202E-001,8.945277333259583E-001,
1.409533333333334E+009,3.131513297557831E-002,-1.106443814933300E-002,-3.880031406879425E-001,9.082493185997009E-001,3.131513297557831E-002,-1.106443814933300E-002,-3.880031406879425E-001,9.082493185997009E-001,
1.417900000000000E+009,3.159645944833756E-002,1.197495218366385E-002,-3.693266212940216E-001,9.012038111686707E-001,3.159645944833756E-002,1.197495218366385E-002,-3.693266212940216E-001,9.012038111686707E-001,
1.426266666666667E+009,4.235900938510895E-002,2.736896276473999E-002,-3.318749666213989E-001,9.273892641067505E-001,4.235900938510895E-002,2.736896276473999E-002,-3.318749666213989E-001,9.273892641067505E-001,
1.434633333333334E+009,6.280035525560379E-002,3.433541953563690E-002,-3.212895095348358E-001,9.255894422531128E-001,6.280035525560379E-002,3.433541953563690E-002,-3.212895095348358E-001,9.255894422531128E-001,
1.443000000000000E+009,8.386304229497910E-002,2.974902838468552E-002,-2.970248162746429E-001,9.326419234275818E-001,8.386304229497910E-002,2.974902838468552E-002,-2.970248162746429E-001,9.326419234275818E-001,
1.451366666666667E+009,1.002239510416985E-001,1.352639775723219E-002,-2.714922130107880E-001,9.318779110908508E-001,1.002239510416985E-001,1.352639775723219E-002,-2.714922130107880E-001,9.318779110908508E-001,
1.459733333333334E+009,1.072009801864624E-001,-7.710959762334824E-003,-2.446690052747726E-001,9.552969336509705E-001,1.072009801864624E-001,-7.710959762334824E-003,-2.446690052747726E-001,9.552969336509705E-001,
