% Version 1.00
%
%freq[Hz],re:Trc1_S11,im:Trc1_S11,re:Trc2_S21,im:Trc2_S21,re:Trc3_S11,im:Trc3_S11,re:Trc4_S21,im:Trc4_S21,
6.900000000000000E+008,-4.740463197231293E-002,3.901742398738861E-002,-5.048634409904480E-001,-8.504366874694824E-001,-4.740463197231293E-002,3.901742398738861E-002,-5.048634409904480E-001,-8.504366874694824E-001,
6.983666666666666E+008,-3.950120136141777E-002,3.937401250004768E-002,-5.295037627220154E-001,-8.409823775291443E-001,-3.950120136141777E-002,3.937401250004768E-002,-5.295037627220154E-001,-8.409823775291443E-001,
7.067333333333334E+008,-3.355393931269646E-002,3.479922190308571E-002,-5.521064400672913E-001,-8.153623342514038E-001,-3.355393931269646E-002,3.479922190308571E-002,-5.521064400672913E-001,-8.153623342514038E-001,
7.151000000000000E+008,-3.326756134629250E-002,2.714477665722370E-002,-5.868587493896484E-001,-8.119943141937256E-001,-3.326756134629250E-002,2.714477665722370E-002,-5.868587493896484E-001,-8.119943141937256E-001,
7.234666666666666E+008,-3.540537506341934E-002,2.197859250009060E-002,-5.998899936676025E-001,-7.978535890579224E-001,-3.540537506341934E-002,2.197859250009060E-002,-5.998899936676025E-001,-7.978535890579224E-001,
7.318333333333334E+008,-4.276825115084648E-002,1.971694268286228E-002,-6.195397377014160E-001,-7.788422107696533E-001,-4.276825115084648E-002,1.971694268286228E-002,-6.195397377014160E-001,-7.788422107696533E-001,
7.402000000000000E+008,-4.903385788202286E-002,2.182291634380817E-002,-6.286157369613648E-001,-7.535461187362671E-001,-4.903385788202286E-002,2.182291634380817E-002,-6.286157369613648E-001,-7.535461187362671E-001,
7.485666666666666E+008,-5.417268723249435E-002,2.902488596737385E-002,-6.579208374023438E-001,-7.405882477760315E-001,-5.417268723249435E-002,2.902488596737385E-002,-6.579208374023438E-001,-7.405882477760315E-001,
7.569333333333334E+008,-5.787869915366173E-002,3.883146122097969E-002,-6.771116256713867E-001,-7.284936904907227E-001,-5.787869915366173E-002,3.883146122097969E-002,-6.771116256713867E-001,-7.284936904907227E-001,
7.653000000000000E+008,-5.238175392150879E-002,4.778237640857697E-002,-6.833848357200623E-001,-7.098038792610169E-001,-5.238175392150879E-002,4.778237640857697E-002,-6.833848357200623E-001,-7.098038792610169E-001,
7.736666666666666E+008,-4.579944908618927E-002,5.426660552620888E-002,-6.978760957717896E-001,-7.050364017486572E-001,-4.579944908618927E-002,5.426660552620888E-002,-6.978760957717896E-001,-7.050364017486572E-001,
7.820333333333334E+008,-3.704265132546425E-002,5.824854597449303E-002,-7.303879261016846E-001,-6.761311292648315E-001,-3.704265132546425E-002,5.824854597449303E-002,-7.303879261016846E-001,-6.761311292648315E-001,
7.904000000000000E+008,-2.714730054140091E-002,5.705043673515320E-002,-7.390795946121216E-001,-6.579846739768982E-001,-2.714730054140091E-002,5.705043673515320E-002,-7.390795946121216E-001,-6.579846739768982E-001,
7.987666666666666E+008,-2.282818220555782E-002,5.179337039589882E-002,-7.454832196235657E-001,-6.415642499923706E-001,-2.282818220555782E-002,5.179337039589882E-002,-7.454832196235657E-001,-6.415642499923706E-001,
8.071333333333334E+008,-2.088252082467079E-002,4.540423676371574E-002,-7.725906372070313E-001,-6.099463105201721E-001,-2.088252082467079E-002,4.540423676371574E-002,-7.725906372070313E-001,-6.099463105201721E-001,
8.155000000000000E+008,-2.378346398472786E-002,3.825116902589798E-002,-7.979369163513184E-001,-5.992663502693176E-001,-2.378346398472786E-002,3.825116902589798E-002,-7.979369163513184E-001,-5.992663502693176E-001,
8.238666666666666E+008,-3.061438910663128E-002,3.628335520625114E-002,-8.035064935684204E-001,-5.761824250221252E-001,-3.061438910663128E-002,3.628335520625114E-002,-8.035064935684204E-001,-5.761824250221252E-001,
8.322333333333334E+008,-3.609148412942886E-002,3.774085268378258E-002,-8.131464719772339E-001,-5.570110678672791E-001,-3.609148412942886E-002,3.774085268378258E-002,-8.131464719772339E-001,-5.570110678672791E-001,
8.406000000000000E+008,-4.076018184423447E-002,4.113763570785523E-002,-8.262855410575867E-001,-5.352306962013245E-001,-4.076018184423447E-002,4.113763570785523E-002,-8.262855410575867E-001,-5.352306962013245E-001,
8.489666666666668E+008,-4.201788082718849E-002,5.239512026309967E-002,-8.381601572036743E-001,-5.050028562545776E-001,-4.201788082718849E-002,5.239512026309967E-002,-8.381601572036743E-001,-5.050028562545776E-001,
8.573333333333334E+008,-3.981438279151917E-002,6.020864099264145E-002,-8.412307500839233E-001,-4.744168817996979E-001,-3.981438279151917E-002,6.020864099264145E-002,-8.412307500839233E-001,-4.744168817996979E-001,
8.657000000000000E+008,-3.442144766449928E-002,6.780207157135010E-002,-8.673068881034851E-001,-4.783320724964142E-001,-3.442144766449928E-002,6.780207157135010E-002,-8.673068881034851E-001,-4.783320724964142E-001,
8.740666666666668E+008,-2.528736926615238E-002,7.272757589817047E-002,-8.738965392112732E-001,-4.557548463344574E-001,-2.528736926615238E-002,7.272757589817047E-002,-8.738965392112732E-001,-4.557548463344574E-001,
8.824333333333334E+008,-1.699075475335121E-002,7.411830127239227E-002,-8.922643661499023E-001,-4.299531579017639E-001,-1.699075475335121E-002,7.411830127239227E-002,-8.922643661499023E-001,-4.299531579017639E-001,
8.908000000000000E+008,-8.937740698456764E-003,7.038752734661102E-002,-9.055947661399841E-001,-4.126807749271393E-001,-8.937740698456764E-003,7.038752734661102E-002,-9.055947661399841E-001,-4.126807749271393E-001,
8.991666666666668E+008,-3.522710409015417E-003,6.442847847938538E-002,-9.054527878761292E-001,-3.841187655925751E-001,-3.522710409015417E-003,6.442847847938538E-002,-9.054527878761292E-001,-3.841187655925751E-001,
9.075333333333334E+008,-3.328523598611355E-003,5.694587901234627E-002,-9.189924597740173E-001,-3.596256077289581E-001,-3.328523598611355E-003,5.694587901234627E-002,-9.189924597740173E-001,-3.596256077289581E-001,
9.159000000000000E+008,-6.098222453147173E-003,5.124785751104355E-002,-9.411725401878357E-001,-3.351818323135376E-001,-6.098222453147173E-003,5.124785751104355E-002,-9.411725401878357E-001,-3.351818323135376E-001,
9.242666666666668E+008,-1.281219348311424E-002,5.146586149930954E-002,-9.327137470245361E-001,-3.128395676612854E-001,-1.281219348311424E-002,5.146586149930954E-002,-9.327137470245361E-001,-3.128395676612854E-001,
9.326333333333334E+008,-1.769027672708035E-002,5.365936830639839E-002,-9.486399292945862E-001,-2.984752655029297E-001,-1.769027672708035E-002,5.365936830639839E-002,-9.486399292945862E-001,-2.984752655029297E-001,
9.410000000000000E+008,-2.154610678553581E-002,5.801565572619438E-002,-9.588516354560852E-001,-2.634482681751251E-001,-2.154610678553581E-002,5.801565572619438E-002,-9.588516354560852E-001,-2.634482681751251E-001,
9.493666666666668E+008,-2.279738895595074E-002,6.709037721157074E-002,-9.630730748176575E-001,-2.322691529989243E-001,-2.279738895595074E-002,6.709037721157074E-002,-9.630730748176575E-001,-2.322691529989243E-001,
9.577333333333334E+008,-1.887075789272785E-002,7.684803754091263E-002,-9.692885875701904E-001,-2.174874693155289E-001,-1.887075789272785E-002,7.684803754091263E-002,-9.692885875701904E-001,-2.174874693155289E-001,
9.661000000000000E+008,-1.000488456338644E-002,8.343144506216049E-002,-9.694016575813294E-001,-1.752812266349793E-001,-1.000488456338644E-002,8.343144506216049E-002,-9.694016575813294E-001,-1.752812266349793E-001,
9.744666666666668E+008,9.575837175361812E-004,8.355507999658585E-002,-9.679235816001892E-001,-1.653956770896912E-001,9.575837175361812E-004,8.355507999658585E-002,-9.679235816001892E-001,-1.653956770896912E-001,
9.828333333333334E+008,1.013227459043264E-002,8.443728834390640E-002,-9.832833409309387E-001,-1.466145813465118E-001,1.013227459043264E-002,8.443728834390640E-002,-9.832833409309387E-001,-1.466145813465118E-001,
9.912000000000000E+008,2.076553367078304E-002,7.784739136695862E-002,-9.810565710067749E-001,-1.239677518606186E-001,2.076553367078304E-002,7.784739136695862E-002,-9.810565710067749E-001,-1.239677518606186E-001,
9.995666666666668E+008,2.418911643326283E-002,7.019903510808945E-002,-9.934551119804382E-001,-8.816023916006088E-002,2.418911643326283E-002,7.019903510808945E-002,-9.934551119804382E-001,-8.816023916006088E-002,
1.007933333333333E+009,2.787029929459095E-002,6.048084795475006E-002,-1.007053732872009E+000,-6.994668394327164E-002,2.787029929459095E-002,6.048084795475006E-002,-1.007053732872009E+000,-6.994668394327164E-002,
1.016300000000000E+009,2.184549905359745E-002,5.432682856917381E-002,-9.932534694671631E-001,-4.335829988121986E-002,2.184549905359745E-002,5.432682856917381E-002,-9.932534694671631E-001,-4.335829988121986E-002,
1.024666666666667E+009,1.409123186022043E-002,5.051059648394585E-002,-9.895756840705872E-001,-1.778209023177624E-002,1.409123186022043E-002,5.051059648394585E-002,-9.895756840705872E-001,-1.778209023177624E-002,
1.033033333333333E+009,9.220086038112640E-003,5.511155351996422E-002,-9.960465431213379E-001,8.589013479650021E-003,9.220086038112640E-003,5.511155351996422E-002,-9.960465431213379E-001,8.589013479650021E-003,
1.041400000000000E+009,2.844852628186345E-003,6.001103669404984E-002,-9.958785176277161E-001,2.952512353658676E-002,2.844852628186345E-003,6.001103669404984E-002,-9.958785176277161E-001,2.952512353658676E-002,
1.049766666666667E+009,6.302476860582829E-003,6.942282617092133E-002,-9.810965061187744E-001,6.628422439098358E-002,6.302476860582829E-003,6.942282617092133E-002,-9.810965061187744E-001,6.628422439098358E-002,
1.058133333333333E+009,1.080669462680817E-002,7.838220894336700E-002,-9.829700589179993E-001,8.887375891208649E-002,1.080669462680817E-002,7.838220894336700E-002,-9.829700589179993E-001,8.887375891208649E-002,
1.066500000000000E+009,2.229468896985054E-002,8.222196251153946E-002,-9.974964857101440E-001,1.231331005692482E-001,2.229468896985054E-002,8.222196251153946E-002,-9.974964857101440E-001,1.231331005692482E-001,
1.074866666666667E+009,3.588834032416344E-002,8.059309422969818E-002,-9.917849302291870E-001,1.436921954154968E-001,3.588834032416344E-002,8.059309422969818E-002,-9.917849302291870E-001,1.436921954154968E-001,
1.083233333333334E+009,4.468847438693047E-002,7.249297201633453E-002,-9.751184582710266E-001,1.647507697343826E-001,4.468847438693047E-002,7.249297201633453E-002,-9.751184582710266E-001,1.647507697343826E-001,
1.091600000000000E+009,5.083446204662323E-002,6.161637976765633E-002,-9.571022391319275E-001,1.839009523391724E-001,5.083446204662323E-002,6.161637976765633E-002,-9.571022391319275E-001,1.839009523391724E-001,
1.099966666666667E+009,4.979134723544121E-002,4.814517870545387E-002,-9.522792100906372E-001,2.220603078603745E-001,4.979134723544121E-002,4.814517870545387E-002,-9.522792100906372E-001,2.220603078603745E-001,
1.108333333333334E+009,4.151466861367226E-002,4.007913544774056E-002,-9.516698122024536E-001,2.305527329444885E-001,4.151466861367226E-002,4.007913544774056E-002,-9.516698122024536E-001,2.305527329444885E-001,
1.116700000000000E+009,3.118960000574589E-002,3.693222627043724E-002,-9.439596533775330E-001,2.648828923702240E-001,3.118960000574589E-002,3.693222627043724E-002,-9.439596533775330E-001,2.648828923702240E-001,
1.125066666666667E+009,2.017147839069367E-002,4.169176518917084E-002,-9.451319575309753E-001,2.805121541023254E-001,2.017147839069367E-002,4.169176518917084E-002,-9.451319575309753E-001,2.805121541023254E-001,
1.133433333333334E+009,1.278558652848005E-002,5.150517821311951E-002,-9.418898820877075E-001,3.258616328239441E-001,1.278558652848005E-002,5.150517821311951E-002,-9.418898820877075E-001,3.258616328239441E-001,
1.141800000000000E+009,1.187187060713768E-002,6.505231559276581E-002,-9.187238812446594E-001,3.417797088623047E-001,1.187187060713768E-002,6.505231559276581E-002,-9.187238812446594E-001,3.417797088623047E-001,
1.150166666666667E+009,2.106878533959389E-002,7.902655005455017E-002,-9.107354879379273E-001,3.422071635723114E-001,2.106878533959389E-002,7.902655005455017E-002,-9.107354879379273E-001,3.422071635723114E-001,
1.158533333333334E+009,3.752444684505463E-002,8.572018891572952E-002,-9.023405909538269E-001,3.807241916656494E-001,3.752444684505463E-002,8.572018891572952E-002,-9.023405909538269E-001,3.807241916656494E-001,
1.166900000000000E+009,5.677204951643944E-002,8.537344634532929E-002,-8.859435915946960E-001,4.011681377887726E-001,5.677204951643944E-002,8.537344634532929E-002,-8.859435915946960E-001,4.011681377887726E-001,
1.175266666666667E+009,7.267910242080689E-002,7.413523644208908E-002,-8.803859353065491E-001,4.307977855205536E-001,7.267910242080689E-002,7.413523644208908E-002,-8.803859353065491E-001,4.307977855205536E-001,
1.183633333333334E+009,8.457173407077789E-002,5.907847732305527E-002,-8.784632086753845E-001,4.417146146297455E-001,8.457173407077789E-002,5.907847732305527E-002,-8.784632086753845E-001,4.417146146297455E-001,
1.192000000000000E+009,8.421603590250015E-002,4.012334719300270E-002,-8.656292557716370E-001,4.645561575889587E-001,8.421603590250015E-002,4.012334719300270E-002,-8.656292557716370E-001,4.645561575889587E-001,
1.200366666666667E+009,7.458431273698807E-002,2.346881292760372E-002,-8.528718352317810E-001,4.865065515041351E-001,7.458431273698807E-002,2.346881292760372E-002,-8.528718352317810E-001,4.865065515041351E-001,
1.208733333333334E+009,5.959355458617210E-002,1.456091646105051E-002,-8.459874391555786E-001,5.293994545936585E-001,5.959355458617210E-002,1.456091646105051E-002,-8.459874391555786E-001,5.293994545936585E-001,
1.217100000000000E+009,4.371953755617142E-002,1.603681221604347E-002,-8.423414826393127E-001,5.390384793281555E-001,4.371953755617142E-002,1.603681221604347E-002,-8.423414826393127E-001,5.390384793281555E-001,
1.225466666666667E+009,3.146679326891899E-002,2.701282687485218E-002,-8.087013363838196E-001,5.633844137191773E-001,3.146679326891899E-002,2.701282687485218E-002,-8.087013363838196E-001,5.633844137191773E-001,
1.233833333333334E+009,2.737859822809696E-002,4.352399334311485E-002,-8.040326833724976E-001,5.752170681953430E-001,2.737859822809696E-002,4.352399334311485E-002,-8.040326833724976E-001,5.752170681953430E-001,
1.242200000000000E+009,3.612782061100006E-002,5.758853256702423E-002,-7.778665423393250E-001,6.072503924369812E-001,3.612782061100006E-002,5.758853256702423E-002,-7.778665423393250E-001,6.072503924369812E-001,
1.250566666666667E+009,4.952627792954445E-002,6.735892593860626E-002,-7.575319409370422E-001,6.142290234565735E-001,4.952627792954445E-002,6.735892593860626E-002,-7.575319409370422E-001,6.142290234565735E-001,
1.258933333333334E+009,7.009469717741013E-002,6.720680743455887E-002,-7.503637075424194E-001,6.350530982017517E-001,7.009469717741013E-002,6.720680743455887E-002,-7.503637075424194E-001,6.350530982017517E-001,
1.267300000000000E+009,8.948834985494614E-002,5.590169504284859E-002,-7.312933802604675E-001,6.500464677810669E-001,8.948834985494614E-002,5.590169504284859E-002,-7.312933802604675E-001,6.500464677810669E-001,
1.275666666666667E+009,9.845443814992905E-002,3.759475424885750E-002,-7.198894619941711E-001,6.579166650772095E-001,9.845443814992905E-002,3.759475424885750E-002,-7.198894619941711E-001,6.579166650772095E-001,
1.284033333333334E+009,1.006058305501938E-001,1.602561026811600E-002,-7.015756368637085E-001,7.001335024833679E-001,1.006058305501938E-001,1.602561026811600E-002,-7.015756368637085E-001,7.001335024833679E-001,
1.292400000000000E+009,8.991822600364685E-002,-2.579420339316130E-003,-6.903860569000244E-001,7.036514878273010E-001,8.991822600364685E-002,-2.579420339316130E-003,-6.903860569000244E-001,7.036514878273010E-001,
1.300766666666667E+009,7.046555727720261E-002,-1.098919380456209E-002,-6.678416132926941E-001,7.274371981620789E-001,7.046555727720261E-002,-1.098919380456209E-002,-6.678416132926941E-001,7.274371981620789E-001,
1.309133333333334E+009,4.991793632507324E-002,-9.436920285224915E-003,-6.434614062309265E-001,7.412123680114746E-001,4.991793632507324E-002,-9.436920285224915E-003,-6.434614062309265E-001,7.412123680114746E-001,
1.317500000000000E+009,3.558065742254257E-002,2.666513901203871E-003,-6.299846768379211E-001,7.721999883651733E-001,3.558065742254257E-002,2.666513901203871E-003,-6.299846768379211E-001,7.721999883651733E-001,
1.325866666666667E+009,3.138854354619980E-002,1.960766129195690E-002,-6.104696393013001E-001,7.872526645660400E-001,3.138854354619980E-002,1.960766129195690E-002,-6.104696393013001E-001,7.872526645660400E-001,
1.334233333333334E+009,3.979100286960602E-002,3.707577660679817E-002,-5.915440320968628E-001,7.928681373596191E-001,3.979100286960602E-002,3.707577660679817E-002,-5.915440320968628E-001,7.928681373596191E-001,
1.342600000000000E+009,5.574245005846024E-002,4.582184553146362E-002,-5.738210082054138E-001,8.101471662521362E-001,5.574245005846024E-002,4.582184553146362E-002,-5.738210082054138E-001,8.101471662521362E-001,
1.350966666666667E+009,7.608281075954437E-002,4.231151193380356E-002,-5.474746227264404E-001,8.218970298767090E-001,7.608281075954437E-002,4.231151193380356E-002,-5.474746227264404E-001,8.218970298767090E-001,
1.359333333333334E+009,9.098450094461441E-002,2.820452488958836E-002,-5.345168709754944E-001,8.214349746704102E-001,9.098450094461441E-002,2.820452488958836E-002,-5.345168709754944E-001,8.214349746704102E-001,
1.367700000000000E+009,9.674092382192612E-002,8.023550733923912E-003,-4.999885559082031E-001,8.398913741111755E-001,9.674092382192612E-002,8.023550733923912E-003,-4.999885559082031E-001,8.398913741111755E-001,
1.376066666666667E+009,9.286931902170181E-002,-1.451603695750237E-002,-4.852826595306397E-001,8.489775061607361E-001,9.286931902170181E-002,-1.451603695750237E-002,-4.852826595306397E-001,8.489775061607361E-001,
1.384433333333334E+009,7.575476169586182E-002,-2.976053766906261E-002,-4.714835286140442E-001,8.794351816177368E-001,7.575476169586182E-002,-2.976053766906261E-002,-4.714835286140442E-001,8.794351816177368E-001,
1.392800000000000E+009,5.493987351655960E-002,-3.207803145051003E-002,-4.495133459568024E-001,8.879900574684143E-001,5.493987351655960E-002,-3.207803145051003E-002,-4.495133459568024E-001,8.879900574684143E-001,
1.401166666666667E+009,3.430151194334030E-002,-2.455211430788040E-002,-4.221325218677521E-001,8.951213359832764E-001,3.430151194334030E-002,-2.455211430788040E-002,-4.221325218677521E-001,8.951213359832764E-001,
1.409533333333334E+009,2.090715430676937E-002,-7.134593557566404E-003,-3.923811912536621E-001,9.095888137817383E-001,2.090715430676937E-002,-7.134593557566404E-003,-3.923811912536621E-001,9.095888137817383E-001,
1.417900000000000E+009,2.184032835066319E-002,1.605992205440998E-002,-3.738660514354706E-001,9.039542675018311E-001,2.184032835066319E-002,1.605992205440998E-002,-3.738660514354706E-001,9.039542675018311E-001,
1.426266666666667E+009,3.281123191118240E-002,3.308416530489922E-002,-3.365819156169891E-001,9.319364428520203E-001,3.281123191118240E-002,3.308416530489922E-002,-3.365819156169891E-001,9.319364428520203E-001,
1.434633333333334E+009,5.358688533306122E-002,4.106806963682175E-002,-3.256978988647461E-001,9.265133142471314E-001,5.358688533306122E-002,4.106806963682175E-002,-3.256978988647461E-001,9.265133142471314E-001,
1.443000000000000E+009,7.416806370019913E-002,3.772727400064468E-002,-3.018216192722321E-001,9.334864616394043E-001,7.416806370019913E-002,3.772727400064468E-002,-3.018216192722321E-001,9.334864616394043E-001,
1.451366666666667E+009,9.001310169696808E-002,2.156051248311997E-002,-2.755097746849060E-001,9.342046380043030E-001,9.001310169696808E-002,2.156051248311997E-002,-2.755097746849060E-001,9.342046380043030E-001,
1.459733333333334E+009,9.640303999185562E-002,7.248737965710461E-004,-2.478150129318237E-001,9.608667492866516E-001,9.640303999185562E-002,7.248737965710461E-004,-2.478150129318237E-001,9.608667492866516E-001,
