% Version 1.00
%
%freq[Hz],re:Trc1_S11,im:Trc1_S11,re:Trc2_S21,im:Trc2_S21,re:Trc3_S11,im:Trc3_S11,re:Trc4_S21,im:Trc4_S21,
6.900000000000000E+008,-4.755220934748650E-002,3.895063325762749E-002,-5.038358569145203E-001,-8.517771959304810E-001,-4.755220934748650E-002,3.895063325762749E-002,-5.038358569145203E-001,-8.517771959304810E-001,
6.983666666666666E+008,-3.923188894987106E-002,3.929959237575531E-002,-5.319898128509522E-001,-8.416069149971008E-001,-3.923188894987106E-002,3.929959237575531E-002,-5.319898128509522E-001,-8.416069149971008E-001,
7.067333333333334E+008,-3.359364345669746E-002,3.498050570487976E-002,-5.520431399345398E-001,-8.157469630241394E-001,-3.359364345669746E-002,3.498050570487976E-002,-5.520431399345398E-001,-8.157469630241394E-001,
7.151000000000000E+008,-3.329632058739662E-002,2.711053937673569E-002,-5.882484912872315E-001,-8.110873103141785E-001,-3.329632058739662E-002,2.711053937673569E-002,-5.882484912872315E-001,-8.110873103141785E-001,
7.234666666666666E+008,-3.539358451962471E-002,2.191465906798840E-002,-6.004970669746399E-001,-7.964244484901428E-001,-3.539358451962471E-002,2.191465906798840E-002,-6.004970669746399E-001,-7.964244484901428E-001,
7.318333333333334E+008,-4.271877184510231E-002,1.974597573280335E-002,-6.184790730476379E-001,-7.780891060829163E-001,-4.271877184510231E-002,1.974597573280335E-002,-6.184790730476379E-001,-7.780891060829163E-001,
7.402000000000000E+008,-4.899214953184128E-002,2.192423306405544E-002,-6.279568672180176E-001,-7.556405663490295E-001,-4.899214953184128E-002,2.192423306405544E-002,-6.279568672180176E-001,-7.556405663490295E-001,
7.485666666666666E+008,-5.411918833851814E-002,2.916146442294121E-002,-6.584496498107910E-001,-7.415451407432556E-001,-5.411918833851814E-002,2.916146442294121E-002,-6.584496498107910E-001,-7.415451407432556E-001,
7.569333333333334E+008,-5.801647529006004E-002,3.872770816087723E-002,-6.789314150810242E-001,-7.283195257186890E-001,-5.801647529006004E-002,3.872770816087723E-002,-6.789314150810242E-001,-7.283195257186890E-001,
7.653000000000000E+008,-5.209220573306084E-002,4.771725460886955E-002,-6.839565634727478E-001,-7.115981578826904E-001,-5.209220573306084E-002,4.771725460886955E-002,-6.839565634727478E-001,-7.115981578826904E-001,
7.736666666666666E+008,-4.583441093564034E-002,5.428969860076904E-002,-6.979464292526245E-001,-7.031899690628052E-001,-4.583441093564034E-002,5.428969860076904E-002,-6.979464292526245E-001,-7.031899690628052E-001,
7.820333333333334E+008,-3.705007955431938E-002,5.802547559142113E-002,-7.309994101524353E-001,-6.762796044349670E-001,-3.705007955431938E-002,5.802547559142113E-002,-7.309994101524353E-001,-6.762796044349670E-001,
7.904000000000000E+008,-2.726092748343945E-002,5.718515440821648E-002,-7.404391169548035E-001,-6.597056984901428E-001,-2.726092748343945E-002,5.718515440821648E-002,-7.404391169548035E-001,-6.597056984901428E-001,
7.987666666666666E+008,-2.288351021707058E-002,5.155527964234352E-002,-7.463374733924866E-001,-6.425570845603943E-001,-2.288351021707058E-002,5.155527964234352E-002,-7.463374733924866E-001,-6.425570845603943E-001,
8.071333333333334E+008,-2.100051008164883E-002,4.533240944147110E-002,-7.719217538833618E-001,-6.119093298912048E-001,-2.100051008164883E-002,4.533240944147110E-002,-7.719217538833618E-001,-6.119093298912048E-001,
8.155000000000000E+008,-2.386380918323994E-002,3.815871477127075E-002,-7.984723448753357E-001,-5.989773869514465E-001,-2.386380918323994E-002,3.815871477127075E-002,-7.984723448753357E-001,-5.989773869514465E-001,
8.238666666666666E+008,-3.059753403067589E-002,3.615312278270721E-002,-8.043411970138550E-001,-5.751475095748901E-001,-3.059753403067589E-002,3.615312278270721E-002,-8.043411970138550E-001,-5.751475095748901E-001,
8.322333333333334E+008,-3.623944148421288E-002,3.773673623800278E-002,-8.149381875991821E-001,-5.584064126014710E-001,-3.623944148421288E-002,3.773673623800278E-002,-8.149381875991821E-001,-5.584064126014710E-001,
8.406000000000000E+008,-4.064279794692993E-002,4.110695421695709E-002,-8.251824975013733E-001,-5.343766808509827E-001,-4.064279794692993E-002,4.110695421695709E-002,-8.251824975013733E-001,-5.343766808509827E-001,
8.489666666666668E+008,-4.201017320156097E-002,5.235437303781509E-002,-8.383930921554565E-001,-5.051043033599854E-001,-4.201017320156097E-002,5.235437303781509E-002,-8.383930921554565E-001,-5.051043033599854E-001,
8.573333333333334E+008,-3.966810181736946E-002,6.022921577095985E-002,-8.392935395240784E-001,-4.758501648902893E-001,-3.966810181736946E-002,6.022921577095985E-002,-8.392935395240784E-001,-4.758501648902893E-001,
8.657000000000000E+008,-3.445999324321747E-002,6.777749210596085E-002,-8.664728999137878E-001,-4.772268533706665E-001,-3.445999324321747E-002,6.777749210596085E-002,-8.664728999137878E-001,-4.772268533706665E-001,
8.740666666666668E+008,-2.513769455254078E-002,7.269782572984695E-002,-8.741021156311035E-001,-4.549099802970886E-001,-2.513769455254078E-002,7.269782572984695E-002,-8.741021156311035E-001,-4.549099802970886E-001,
8.824333333333334E+008,-1.702476479113102E-002,7.405425608158112E-002,-8.928163051605225E-001,-4.300387203693390E-001,-1.702476479113102E-002,7.405425608158112E-002,-8.928163051605225E-001,-4.300387203693390E-001,
8.908000000000000E+008,-9.185094386339188E-003,7.035402208566666E-002,-9.043248891830444E-001,-4.125728309154511E-001,-9.185094386339188E-003,7.035402208566666E-002,-9.043248891830444E-001,-4.125728309154511E-001,
8.991666666666668E+008,-3.868799889460206E-003,6.444804370403290E-002,-9.063478708267212E-001,-3.842029273509979E-001,-3.868799889460206E-003,6.444804370403290E-002,-9.063478708267212E-001,-3.842029273509979E-001,
9.075333333333334E+008,-3.464484354481101E-003,5.692075565457344E-002,-9.187635183334351E-001,-3.598109185695648E-001,-3.464484354481101E-003,5.692075565457344E-002,-9.187635183334351E-001,-3.598109185695648E-001,
9.159000000000000E+008,-6.127627566456795E-003,5.116228759288788E-002,-9.414770603179932E-001,-3.339831233024597E-001,-6.127627566456795E-003,5.116228759288788E-002,-9.414770603179932E-001,-3.339831233024597E-001,
9.242666666666668E+008,-1.269453670829535E-002,5.143136903643608E-002,-9.334724545478821E-001,-3.122177124023438E-001,-1.269453670829535E-002,5.143136903643608E-002,-9.334724545478821E-001,-3.122177124023438E-001,
9.326333333333334E+008,-1.766105554997921E-002,5.361187085509300E-002,-9.479112029075623E-001,-2.983808815479279E-001,-1.766105554997921E-002,5.361187085509300E-002,-9.479112029075623E-001,-2.983808815479279E-001,
9.410000000000000E+008,-2.133850194513798E-002,5.798338726162911E-002,-9.599213600158691E-001,-2.614996731281281E-001,-2.133850194513798E-002,5.798338726162911E-002,-9.599213600158691E-001,-2.614996731281281E-001,
9.493666666666668E+008,-2.263824641704559E-002,6.718059629201889E-002,-9.633281230926514E-001,-2.318544238805771E-001,-2.263824641704559E-002,6.718059629201889E-002,-9.633281230926514E-001,-2.318544238805771E-001,
9.577333333333334E+008,-1.886612735688686E-002,7.680195569992065E-002,-9.686597585678101E-001,-2.180745750665665E-001,-1.886612735688686E-002,7.680195569992065E-002,-9.686597585678101E-001,-2.180745750665665E-001,
9.661000000000000E+008,-1.010393910109997E-002,8.337862789630890E-002,-9.681563973426819E-001,-1.754939556121826E-001,-1.010393910109997E-002,8.337862789630890E-002,-9.681563973426819E-001,-1.754939556121826E-001,
9.744666666666668E+008,7.991378079168499E-004,8.357235789299011E-002,-9.672980904579163E-001,-1.671046763658524E-001,7.991378079168499E-004,8.357235789299011E-002,-9.672980904579163E-001,-1.671046763658524E-001,
9.828333333333334E+008,9.929956868290901E-003,8.418317139148712E-002,-9.835571646690369E-001,-1.453912258148193E-001,9.929956868290901E-003,8.418317139148712E-002,-9.835571646690369E-001,-1.453912258148193E-001,
9.912000000000000E+008,2.056687511503696E-002,7.788652926683426E-002,-9.805831909179688E-001,-1.241596788167954E-001,2.056687511503696E-002,7.788652926683426E-002,-9.805831909179688E-001,-1.241596788167954E-001,
9.995666666666668E+008,2.421590872108936E-002,6.993291527032852E-002,-9.917373061180115E-001,-8.873845636844635E-002,2.421590872108936E-002,6.993291527032852E-002,-9.917373061180115E-001,-8.873845636844635E-002,
1.007933333333333E+009,2.772438153624535E-002,6.072790548205376E-002,-1.009130954742432E+000,-7.054639607667923E-002,2.772438153624535E-002,6.072790548205376E-002,-1.009130954742432E+000,-7.054639607667923E-002,
1.016300000000000E+009,2.156926505267620E-002,5.454247072339058E-002,-9.933129549026489E-001,-4.374679923057556E-002,2.156926505267620E-002,5.454247072339058E-002,-9.933129549026489E-001,-4.374679923057556E-002,
1.024666666666667E+009,1.393307372927666E-002,5.068675056099892E-002,-9.923036098480225E-001,-1.790260337293148E-002,1.393307372927666E-002,5.068675056099892E-002,-9.923036098480225E-001,-1.790260337293148E-002,
1.033033333333333E+009,9.075375273823738E-003,5.521127581596375E-002,-9.988825917243958E-001,7.986554875969887E-003,9.075375273823738E-003,5.521127581596375E-002,-9.988825917243958E-001,7.986554875969887E-003,
1.041400000000000E+009,2.735179848968983E-003,6.005153432488442E-002,-9.973480105400085E-001,3.163160383701325E-002,2.735179848968983E-003,6.005153432488442E-002,-9.973480105400085E-001,3.163160383701325E-002,
1.049766666666667E+009,6.078628823161125E-003,6.956727802753449E-002,-9.837369918823242E-001,6.581971794366837E-002,6.078628823161125E-003,6.956727802753449E-002,-9.837369918823242E-001,6.581971794366837E-002,
1.058133333333333E+009,1.079659536480904E-002,7.835940271615982E-002,-9.856392741203308E-001,8.833705633878708E-002,1.079659536480904E-002,7.835940271615982E-002,-9.856392741203308E-001,8.833705633878708E-002,
1.066500000000000E+009,2.238536998629570E-002,8.243235200643539E-002,-9.999640583992004E-001,1.228016018867493E-001,2.238536998629570E-002,8.243235200643539E-002,-9.999640583992004E-001,1.228016018867493E-001,
1.074866666666667E+009,3.598051890730858E-002,8.101847767829895E-002,-9.937510490417481E-001,1.417089849710465E-001,3.598051890730858E-002,8.101847767829895E-002,-9.937510490417481E-001,1.417089849710465E-001,
1.083233333333334E+009,4.455203190445900E-002,7.294971495866776E-002,-9.771817922592163E-001,1.629323214292526E-001,4.455203190445900E-002,7.294971495866776E-002,-9.771817922592163E-001,1.629323214292526E-001,
1.091600000000000E+009,5.087959393858910E-002,6.202857196331024E-002,-9.597340822219849E-001,1.839422434568405E-001,5.087959393858910E-002,6.202857196331024E-002,-9.597340822219849E-001,1.839422434568405E-001,
1.099966666666667E+009,4.996772482991219E-002,4.870132729411125E-002,-9.548124670982361E-001,2.223031073808670E-001,4.996772482991219E-002,4.870132729411125E-002,-9.548124670982361E-001,2.223031073808670E-001,
1.108333333333334E+009,4.141850024461746E-002,4.033585637807846E-002,-9.533944129943848E-001,2.281477749347687E-001,4.141850024461746E-002,4.033585637807846E-002,-9.533944129943848E-001,2.281477749347687E-001,
1.116700000000000E+009,3.096648119390011E-002,3.726387396454811E-002,-9.459524750709534E-001,2.639812231063843E-001,3.096648119390011E-002,3.726387396454811E-002,-9.459524750709534E-001,2.639812231063843E-001,
1.125066666666667E+009,2.004201710224152E-002,4.177534952759743E-002,-9.480028152465820E-001,2.802981436252594E-001,2.004201710224152E-002,4.177534952759743E-002,-9.480028152465820E-001,2.802981436252594E-001,
1.133433333333334E+009,1.243658363819122E-002,5.162025988101959E-002,-9.457404613494873E-001,3.257896304130554E-001,1.243658363819122E-002,5.162025988101959E-002,-9.457404613494873E-001,3.257896304130554E-001,
1.141800000000000E+009,1.150198373943567E-002,6.497405469417572E-002,-9.216507077217102E-001,3.409408926963806E-001,1.150198373943567E-002,6.497405469417572E-002,-9.216507077217102E-001,3.409408926963806E-001,
1.150166666666667E+009,2.087303809821606E-002,7.896400243043900E-002,-9.131441116333008E-001,3.406158089637756E-001,2.087303809821606E-002,7.896400243043900E-002,-9.131441116333008E-001,3.406158089637756E-001,
1.158533333333334E+009,3.738329187035561E-002,8.585634082555771E-002,-9.041900038719177E-001,3.815416097640991E-001,3.738329187035561E-002,8.585634082555771E-002,-9.041900038719177E-001,3.815416097640991E-001,
1.166900000000000E+009,5.674191564321518E-002,8.566915243864059E-002,-8.893344998359680E-001,4.013188779354096E-001,5.674191564321518E-002,8.566915243864059E-002,-8.893344998359680E-001,4.013188779354096E-001,
1.175266666666667E+009,7.273292541503906E-002,7.430610805749893E-002,-8.835969567298889E-001,4.313661754131317E-001,7.273292541503906E-002,7.430610805749893E-002,-8.835969567298889E-001,4.313661754131317E-001,
1.183633333333334E+009,8.468302339315414E-002,5.912435054779053E-002,-8.795582652091980E-001,4.433849751949310E-001,8.468302339315414E-002,5.912435054779053E-002,-8.795582652091980E-001,4.433849751949310E-001,
1.192000000000000E+009,8.445070683956146E-002,4.009312018752098E-002,-8.684898614883423E-001,4.667583405971527E-001,8.445070683956146E-002,4.009312018752098E-002,-8.684898614883423E-001,4.667583405971527E-001,
1.200366666666667E+009,7.474251836538315E-002,2.364851906895638E-002,-8.551909327507019E-001,4.871147871017456E-001,7.474251836538315E-002,2.364851906895638E-002,-8.551909327507019E-001,4.871147871017456E-001,
1.208733333333334E+009,5.934583395719528E-002,1.496486179530621E-002,-8.470652699470520E-001,5.277414321899414E-001,5.934583395719528E-002,1.496486179530621E-002,-8.470652699470520E-001,5.277414321899414E-001,
1.217100000000000E+009,4.366454482078552E-002,1.634054258465767E-002,-8.457227349281311E-001,5.409845113754273E-001,4.366454482078552E-002,1.634054258465767E-002,-8.457227349281311E-001,5.409845113754273E-001,
1.225466666666667E+009,3.124489448964596E-002,2.715120092034340E-002,-8.110921978950501E-001,5.638427138328552E-001,3.124489448964596E-002,2.715120092034340E-002,-8.110921978950501E-001,5.638427138328552E-001,
1.233833333333334E+009,2.710376866161823E-002,4.378194361925125E-002,-8.070032000541687E-001,5.759938955307007E-001,2.710376866161823E-002,4.378194361925125E-002,-8.070032000541687E-001,5.759938955307007E-001,
1.242200000000000E+009,3.595032542943955E-002,5.776219815015793E-002,-7.804145216941834E-001,6.084526181221008E-001,3.595032542943955E-002,5.776219815015793E-002,-7.804145216941834E-001,6.084526181221008E-001,
1.250566666666667E+009,4.944095760583878E-002,6.759336590766907E-002,-7.585502266883850E-001,6.134563088417053E-001,4.944095760583878E-002,6.759336590766907E-002,-7.585502266883850E-001,6.134563088417053E-001,
1.258933333333334E+009,7.025158405303955E-002,6.733222305774689E-002,-7.525024414062500E-001,6.366521716117859E-001,7.025158405303955E-002,6.733222305774689E-002,-7.525024414062500E-001,6.366521716117859E-001,
1.267300000000000E+009,8.999973535537720E-002,5.607743561267853E-002,-7.339647412300110E-001,6.507178544998169E-001,8.999973535537720E-002,5.607743561267853E-002,-7.339647412300110E-001,6.507178544998169E-001,
1.275666666666667E+009,9.868725389242172E-002,3.768032789230347E-002,-7.210403680801392E-001,6.587262153625488E-001,9.868725389242172E-002,3.768032789230347E-002,-7.210403680801392E-001,6.587262153625488E-001,
1.284033333333334E+009,1.007832735776901E-001,1.647767052054405E-002,-7.055022716522217E-001,7.017810940742493E-001,1.007832735776901E-001,1.647767052054405E-002,-7.055022716522217E-001,7.017810940742493E-001,
1.292400000000000E+009,9.014832228422165E-002,-2.262626076117158E-003,-6.926816105842590E-001,7.037737965583801E-001,9.014832228422165E-002,-2.262626076117158E-003,-6.926816105842590E-001,7.037737965583801E-001,
1.300766666666667E+009,7.030159980058670E-002,-1.071354839950800E-002,-6.703504323959351E-001,7.286342382431030E-001,7.030159980058670E-002,-1.071354839950800E-002,-6.703504323959351E-001,7.286342382431030E-001,
1.309133333333334E+009,5.015526339411736E-002,-9.059174917638302E-003,-6.452287435531616E-001,7.443749308586121E-001,5.015526339411736E-002,-9.059174917638302E-003,-6.452287435531616E-001,7.443749308586121E-001,
1.317500000000000E+009,3.559288382530212E-002,2.829105593264103E-003,-6.323062777519226E-001,7.724813818931580E-001,3.559288382530212E-002,2.829105593264103E-003,-6.323062777519226E-001,7.724813818931580E-001,
1.325866666666667E+009,3.131205961108208E-002,1.983715035021305E-002,-6.118731498718262E-001,7.897068858146668E-001,3.131205961108208E-002,1.983715035021305E-002,-6.118731498718262E-001,7.897068858146668E-001,
1.334233333333334E+009,3.976554796099663E-002,3.712905198335648E-002,-5.934969782829285E-001,7.952060103416443E-001,3.976554796099663E-002,3.712905198335648E-002,-5.934969782829285E-001,7.952060103416443E-001,
1.342600000000000E+009,5.554336681962013E-002,4.593452811241150E-002,-5.748484730720520E-001,8.120601177215576E-001,5.554336681962013E-002,4.593452811241150E-002,-5.748484730720520E-001,8.120601177215576E-001,
1.350966666666667E+009,7.596153765916824E-002,4.258064925670624E-002,-5.486080646514893E-001,8.230539560317993E-001,7.596153765916824E-002,4.258064925670624E-002,-5.486080646514893E-001,8.230539560317993E-001,
1.359333333333334E+009,9.131618589162827E-002,2.853310294449329E-002,-5.366647839546204E-001,8.216210603713989E-001,9.131618589162827E-002,2.853310294449329E-002,-5.366647839546204E-001,8.216210603713989E-001,
1.367700000000000E+009,9.709379822015762E-002,7.860814221203327E-003,-5.025739669799805E-001,8.418901562690735E-001,9.709379822015762E-002,7.860814221203327E-003,-5.025739669799805E-001,8.418901562690735E-001,
1.376066666666667E+009,9.333932399749756E-002,-1.428909692913294E-002,-4.872051477432251E-001,8.510775566101074E-001,9.333932399749756E-002,-1.428909692913294E-002,-4.872051477432251E-001,8.510775566101074E-001,
1.384433333333334E+009,7.611636072397232E-002,-2.964570745825768E-002,-4.718258380889893E-001,8.816161155700684E-001,7.611636072397232E-002,-2.964570745825768E-002,-4.718258380889893E-001,8.816161155700684E-001,
1.392800000000000E+009,5.532401427626610E-002,-3.218803182244301E-002,-4.508810639381409E-001,8.926016092300415E-001,5.532401427626610E-002,-3.218803182244301E-002,-4.508810639381409E-001,8.926016092300415E-001,
1.401166666666667E+009,3.448931872844696E-002,-2.439990453422070E-002,-4.237080216407776E-001,8.972135782241821E-001,3.448931872844696E-002,-2.439990453422070E-002,-4.237080216407776E-001,8.972135782241821E-001,
1.409533333333334E+009,2.098738215863705E-002,-6.802621763199568E-003,-3.939739465713501E-001,9.123275279998779E-001,2.098738215863705E-002,-6.802621763199568E-003,-3.939739465713501E-001,9.123275279998779E-001,
1.417900000000000E+009,2.188205160200596E-002,1.629844494163990E-002,-3.743532598018646E-001,9.073960185050964E-001,2.188205160200596E-002,1.629844494163990E-002,-3.743532598018646E-001,9.073960185050964E-001,
1.426266666666667E+009,3.260277211666107E-002,3.327764570713043E-002,-3.371856212615967E-001,9.330713152885437E-001,3.260277211666107E-002,3.327764570713043E-002,-3.371856212615967E-001,9.330713152885437E-001,
1.434633333333334E+009,5.329667776823044E-002,4.108164086937904E-002,-3.272580504417419E-001,9.279997944831848E-001,5.329667776823044E-002,4.108164086937904E-002,-3.272580504417419E-001,9.279997944831848E-001,
1.443000000000000E+009,7.384013384580612E-002,3.792221471667290E-002,-3.026001751422882E-001,9.363564848899841E-001,7.384013384580612E-002,3.792221471667290E-002,-3.026001751422882E-001,9.363564848899841E-001,
1.451366666666667E+009,9.023507684469223E-002,2.167561464011669E-002,-2.769687175750732E-001,9.353911876678467E-001,9.023507684469223E-002,2.167561464011669E-002,-2.769687175750732E-001,9.353911876678467E-001,
1.459733333333334E+009,9.658297151327133E-002,7.346348138526082E-004,-2.493408918380737E-001,9.622218608856201E-001,9.658297151327133E-002,7.346348138526082E-004,-2.493408918380737E-001,9.622218608856201E-001,
