% Version 1.00
%
%freq[Hz],re:Trc1_S11,im:Trc1_S11,re:Trc2_S21,im:Trc2_S21,re:Trc3_S11,im:Trc3_S11,re:Trc4_S21,im:Trc4_S21,
6.900000000000000E+008,-4.397348314523697E-002,2.480478212237358E-002,-4.973642230033875E-001,-8.360269069671631E-001,-4.397348314523697E-002,2.480478212237358E-002,-4.973642230033875E-001,-8.360269069671631E-001,
6.983666666666666E+008,-3.647334873676300E-002,2.508064359426498E-002,-5.200717449188232E-001,-8.261664509773254E-001,-3.647334873676300E-002,2.508064359426498E-002,-5.200717449188232E-001,-8.261664509773254E-001,
7.067333333333334E+008,-3.096480853855610E-002,2.067822031676769E-002,-5.446156859397888E-001,-8.009222745895386E-001,-3.096480853855610E-002,2.067822031676769E-002,-5.446156859397888E-001,-8.009222745895386E-001,
7.151000000000000E+008,-3.122044913470745E-002,1.344471983611584E-002,-5.803123116493225E-001,-7.982593178749085E-001,-3.122044913470745E-002,1.344471983611584E-002,-5.803123116493225E-001,-7.982593178749085E-001,
7.234666666666666E+008,-3.322195634245873E-002,8.267326280474663E-003,-5.919207334518433E-001,-7.842078208923340E-001,-3.322195634245873E-002,8.267326280474663E-003,-5.919207334518433E-001,-7.842078208923340E-001,
7.318333333333334E+008,-4.070629179477692E-002,6.033730693161488E-003,-6.081919074058533E-001,-7.681065201759338E-001,-4.070629179477692E-002,6.033730693161488E-003,-6.081919074058533E-001,-7.681065201759338E-001,
7.402000000000000E+008,-4.686642810702324E-002,7.909595966339111E-003,-6.216433048248291E-001,-7.399728298187256E-001,-4.686642810702324E-002,7.909595966339111E-003,-6.216433048248291E-001,-7.399728298187256E-001,
7.485666666666666E+008,-5.199829861521721E-002,1.488661952316761E-002,-6.486151218414307E-001,-7.267940044403076E-001,-5.199829861521721E-002,1.488661952316761E-002,-6.486151218414307E-001,-7.267940044403076E-001,
7.569333333333334E+008,-5.606847628951073E-002,2.437223307788372E-002,-6.692616939544678E-001,-7.138830423355103E-001,-5.606847628951073E-002,2.437223307788372E-002,-6.692616939544678E-001,-7.138830423355103E-001,
7.653000000000000E+008,-5.055949836969376E-002,3.304103016853333E-002,-6.728405356407166E-001,-6.987014412879944E-001,-5.055949836969376E-002,3.304103016853333E-002,-6.728405356407166E-001,-6.987014412879944E-001,
7.736666666666666E+008,-4.458852484822273E-002,3.984734416007996E-002,-6.848539113998413E-001,-6.909328699111939E-001,-4.458852484822273E-002,3.984734416007996E-002,-6.848539113998413E-001,-6.909328699111939E-001,
7.820333333333334E+008,-3.641572967171669E-002,4.391849413514137E-002,-7.196085453033447E-001,-6.631028056144714E-001,-3.641572967171669E-002,4.391849413514137E-002,-7.196085453033447E-001,-6.631028056144714E-001,
7.904000000000000E+008,-2.678591944277287E-002,4.290838912129402E-002,-7.308638691902161E-001,-6.457054018974304E-001,-2.678591944277287E-002,4.290838912129402E-002,-7.308638691902161E-001,-6.457054018974304E-001,
7.987666666666666E+008,-2.334517799317837E-002,3.791755437850952E-002,-7.355555295944214E-001,-6.315662264823914E-001,-2.334517799317837E-002,3.791755437850952E-002,-7.355555295944214E-001,-6.315662264823914E-001,
8.071333333333334E+008,-2.167795039713383E-002,3.143807128071785E-002,-7.597690820693970E-001,-5.988668799400330E-001,-2.167795039713383E-002,3.143807128071785E-002,-7.597690820693970E-001,-5.988668799400330E-001,
8.155000000000000E+008,-2.465949207544327E-002,2.512078732252121E-002,-7.873941659927368E-001,-5.865916013717651E-001,-2.465949207544327E-002,2.512078732252121E-002,-7.873941659927368E-001,-5.865916013717651E-001,
8.238666666666666E+008,-3.163430839776993E-002,2.304962836205959E-002,-7.931207418441773E-001,-5.650804638862610E-001,-3.163430839776993E-002,2.304962836205959E-002,-7.931207418441773E-001,-5.650804638862610E-001,
8.322333333333334E+008,-3.729457035660744E-002,2.468147315084934E-002,-8.020521998405457E-001,-5.480494499206543E-001,-3.729457035660744E-002,2.468147315084934E-002,-8.020521998405457E-001,-5.480494499206543E-001,
8.406000000000000E+008,-4.167164117097855E-002,2.787676639854908E-002,-8.129655718803406E-001,-5.231063365936279E-001,-4.167164117097855E-002,2.787676639854908E-002,-8.129655718803406E-001,-5.231063365936279E-001,
8.489666666666668E+008,-4.315277561545372E-002,3.901596367359161E-002,-8.250375390052795E-001,-4.956057965755463E-001,-4.315277561545372E-002,3.901596367359161E-002,-8.250375390052795E-001,-4.956057965755463E-001,
8.573333333333334E+008,-4.131371900439262E-002,4.648957401514053E-002,-8.259456157684326E-001,-4.665070772171021E-001,-4.131371900439262E-002,4.648957401514053E-002,-8.259456157684326E-001,-4.665070772171021E-001,
8.657000000000000E+008,-3.607562556862831E-002,5.415948107838631E-002,-8.554365038871765E-001,-4.678247869014740E-001,-3.607562556862831E-002,5.415948107838631E-002,-8.554365038871765E-001,-4.678247869014740E-001,
8.740666666666668E+008,-2.744093909859657E-002,5.889917165040970E-002,-8.606218695640564E-001,-4.458173811435700E-001,-2.744093909859657E-002,5.889917165040970E-002,-8.606218695640564E-001,-4.458173811435700E-001,
8.824333333333334E+008,-1.968284137547016E-002,6.060995906591415E-002,-8.795751929283142E-001,-4.210425317287445E-001,-1.968284137547016E-002,6.060995906591415E-002,-8.795751929283142E-001,-4.210425317287445E-001,
8.908000000000000E+008,-1.191877387464047E-002,5.747729912400246E-002,-8.931952714920044E-001,-4.037144780158997E-001,-1.191877387464047E-002,5.747729912400246E-002,-8.931952714920044E-001,-4.037144780158997E-001,
8.991666666666668E+008,-6.734042894095182E-003,5.190423130989075E-002,-8.919405341148377E-001,-3.745113611221314E-001,-6.734042894095182E-003,5.190423130989075E-002,-8.919405341148377E-001,-3.745113611221314E-001,
9.075333333333334E+008,-7.038024254143238E-003,4.424090683460236E-002,-9.062218070030212E-001,-3.501274883747101E-001,-7.038024254143238E-003,4.424090683460236E-002,-9.062218070030212E-001,-3.501274883747101E-001,
9.159000000000000E+008,-9.726779535412788E-003,3.905828297138214E-002,-9.262874126434326E-001,-3.279309868812561E-001,-9.726779535412788E-003,3.905828297138214E-002,-9.262874126434326E-001,-3.279309868812561E-001,
9.242666666666668E+008,-1.650593616068363E-002,3.908238932490349E-002,-9.181804060935974E-001,-3.057815134525299E-001,-1.650593616068363E-002,3.908238932490349E-002,-9.181804060935974E-001,-3.057815134525299E-001,
9.326333333333334E+008,-2.143483608961105E-002,4.153465852141380E-002,-9.346460103988648E-001,-2.903987765312195E-001,-2.143483608961105E-002,4.153465852141380E-002,-9.346460103988648E-001,-2.903987765312195E-001,
9.410000000000000E+008,-2.560236118733883E-002,4.554752632975578E-002,-9.433065056800842E-001,-2.573320865631104E-001,-2.560236118733883E-002,4.554752632975578E-002,-9.433065056800842E-001,-2.573320865631104E-001,
9.493666666666668E+008,-2.685499750077725E-002,5.456914752721787E-002,-9.475852251052856E-001,-2.246620953083038E-001,-2.685499750077725E-002,5.456914752721787E-002,-9.475852251052856E-001,-2.246620953083038E-001,
9.577333333333334E+008,-2.353748492896557E-002,6.430619210004807E-002,-9.525724053382874E-001,-2.119651883840561E-001,-2.353748492896557E-002,6.430619210004807E-002,-9.525724053382874E-001,-2.119651883840561E-001,
9.661000000000000E+008,-1.495378557592630E-002,7.064644992351532E-002,-9.551880359649658E-001,-1.705939620733261E-001,-1.495378557592630E-002,7.064644992351532E-002,-9.551880359649658E-001,-1.705939620733261E-001,
9.744666666666668E+008,-4.265162162482739E-003,7.082940638065338E-002,-9.510585069656372E-001,-1.600507497787476E-001,-4.265162162482739E-003,7.082940638065338E-002,-9.510585069656372E-001,-1.600507497787476E-001,
9.828333333333334E+008,4.690312780439854E-003,7.241093367338181E-002,-9.680398106575012E-001,-1.414681822061539E-001,4.690312780439854E-003,7.241093367338181E-002,-9.680398106575012E-001,-1.414681822061539E-001,
9.912000000000000E+008,1.480179373174906E-002,6.614600121974945E-002,-9.658086895942688E-001,-1.192053258419037E-001,1.480179373174906E-002,6.614600121974945E-002,-9.658086895942688E-001,-1.192053258419037E-001,
9.995666666666668E+008,1.820069551467896E-002,5.865048617124558E-002,-9.768362641334534E-001,-8.318932354450226E-002,1.820069551467896E-002,5.865048617124558E-002,-9.768362641334534E-001,-8.318932354450226E-002,
1.007933333333333E+009,2.128185145556927E-002,4.982787743210793E-002,-9.921318292617798E-001,-6.731508672237396E-002,2.128185145556927E-002,4.982787743210793E-002,-9.921318292617798E-001,-6.731508672237396E-002,
1.016300000000000E+009,1.498521491885185E-002,4.406579583883286E-002,-9.797566533088684E-001,-4.026907309889793E-002,1.498521491885185E-002,4.406579583883286E-002,-9.797566533088684E-001,-4.026907309889793E-002,
1.024666666666667E+009,7.186970207840204E-003,4.017618298530579E-002,-9.757031798362732E-001,-1.370152924209833E-002,7.186970207840204E-003,4.017618298530579E-002,-9.757031798362732E-001,-1.370152924209833E-002,
1.033033333333333E+009,2.271902048960328E-003,4.491914063692093E-002,-9.817735552787781E-001,1.162639167159796E-002,2.271902048960328E-003,4.491914063692093E-002,-9.817735552787781E-001,1.162639167159796E-002,
1.041400000000000E+009,-4.110926296561956E-003,4.979970678687096E-002,-9.815487861633301E-001,3.197956457734108E-002,-4.110926296561956E-003,4.979970678687096E-002,-9.815487861633301E-001,3.197956457734108E-002,
1.049766666666667E+009,-1.118488493375480E-003,5.932088196277618E-002,-9.686215519905090E-001,6.609074771404266E-002,-1.118488493375480E-003,5.932088196277618E-002,-9.686215519905090E-001,6.609074771404266E-002,
1.058133333333333E+009,3.335843794047833E-003,6.835459917783737E-002,-9.681620001792908E-001,8.973096311092377E-002,3.335843794047833E-003,6.835459917783737E-002,-9.681620001792908E-001,8.973096311092377E-002,
1.066500000000000E+009,1.499253138899803E-002,7.275114208459854E-002,-9.857029318809509E-001,1.209585443139076E-001,1.499253138899803E-002,7.275114208459854E-002,-9.857029318809509E-001,1.209585443139076E-001,
1.074866666666667E+009,2.852457575500011E-002,7.124729454517365E-002,-9.771869182586670E-001,1.440155655145645E-001,2.852457575500011E-002,7.124729454517365E-002,-9.771869182586670E-001,1.440155655145645E-001,
1.083233333333334E+009,3.687771037220955E-002,6.357686221599579E-002,-9.603587388992310E-001,1.635841280221939E-001,3.687771037220955E-002,6.357686221599579E-002,-9.603587388992310E-001,1.635841280221939E-001,
1.091600000000000E+009,4.338476806879044E-002,5.348595976829529E-002,-9.434891343116760E-001,1.826179921627045E-001,4.338476806879044E-002,5.348595976829529E-002,-9.434891343116760E-001,1.826179921627045E-001,
1.099966666666667E+009,4.238909110426903E-002,4.019563272595406E-002,-9.389984011650085E-001,2.209223210811615E-001,4.238909110426903E-002,4.019563272595406E-002,-9.389984011650085E-001,2.209223210811615E-001,
1.108333333333334E+009,3.432967141270638E-002,3.255227208137512E-002,-9.381197094917297E-001,2.299525290727615E-001,3.432967141270638E-002,3.255227208137512E-002,-9.381197094917297E-001,2.299525290727615E-001,
1.116700000000000E+009,2.344963699579239E-002,2.954766899347305E-002,-9.297375679016113E-001,2.626330852508545E-001,2.344963699579239E-002,2.954766899347305E-002,-9.297375679016113E-001,2.626330852508545E-001,
1.125066666666667E+009,1.248138584196568E-002,3.449098765850067E-002,-9.323270916938782E-001,2.791930735111237E-001,1.248138584196568E-002,3.449098765850067E-002,-9.323270916938782E-001,2.791930735111237E-001,
1.133433333333334E+009,4.916657693684101E-003,4.421137273311615E-002,-9.288837313652039E-001,3.233263194561005E-001,4.916657693684101E-003,4.421137273311615E-002,-9.288837313652039E-001,3.233263194561005E-001,
1.141800000000000E+009,3.762782085686922E-003,5.734195187687874E-002,-9.067597985267639E-001,3.371322154998779E-001,3.762782085686922E-003,5.734195187687874E-002,-9.067597985267639E-001,3.371322154998779E-001,
1.150166666666667E+009,1.306156907230616E-002,7.100775837898254E-002,-8.960321545600891E-001,3.377709686756134E-001,1.306156907230616E-002,7.100775837898254E-002,-8.960321545600891E-001,3.377709686756134E-001,
1.158533333333334E+009,2.886310778558254E-002,7.744900882244110E-002,-8.887020945549011E-001,3.774297535419464E-001,2.886310778558254E-002,7.744900882244110E-002,-8.887020945549011E-001,3.774297535419464E-001,
1.166900000000000E+009,4.802379012107849E-002,7.742307335138321E-002,-8.732095360755920E-001,3.981440663337708E-001,4.802379012107849E-002,7.742307335138321E-002,-8.732095360755920E-001,3.981440663337708E-001,
1.175266666666667E+009,6.370459496974945E-002,6.654445827007294E-002,-8.664402365684509E-001,4.269854426383972E-001,6.370459496974945E-002,6.654445827007294E-002,-8.664402365684509E-001,4.269854426383972E-001,
1.183633333333334E+009,7.545462995767593E-002,5.213322117924690E-002,-8.650341629981995E-001,4.394270777702332E-001,7.545462995767593E-002,5.213322117924690E-002,-8.650341629981995E-001,4.394270777702332E-001,
1.192000000000000E+009,7.565351575613022E-002,3.379642963409424E-002,-8.549651503562927E-001,4.606103003025055E-001,7.565351575613022E-002,3.379642963409424E-002,-8.549651503562927E-001,4.606103003025055E-001,
1.200366666666667E+009,6.598990410566330E-002,1.842152886092663E-002,-8.414669632911682E-001,4.821752607822418E-001,6.598990410566330E-002,1.842152886092663E-002,-8.414669632911682E-001,4.821752607822418E-001,
1.208733333333334E+009,5.105346813797951E-002,1.002615876495838E-002,-8.345848917961121E-001,5.239223837852478E-001,5.105346813797951E-002,1.002615876495838E-002,-8.345848917961121E-001,5.239223837852478E-001,
1.217100000000000E+009,3.525985404849052E-002,1.193955540657044E-002,-8.299474120140076E-001,5.327776074409485E-001,3.525985404849052E-002,1.193955540657044E-002,-8.299474120140076E-001,5.327776074409485E-001,
1.225466666666667E+009,2.354044653475285E-002,2.292430959641933E-002,-7.973968982696533E-001,5.594462752342224E-001,2.354044653475285E-002,2.292430959641933E-002,-7.973968982696533E-001,5.594462752342224E-001,
1.233833333333334E+009,1.934675872325897E-002,3.951789438724518E-002,-7.921868562698364E-001,5.700860619544983E-001,1.934675872325897E-002,3.951789438724518E-002,-7.921868562698364E-001,5.700860619544983E-001,
1.242200000000000E+009,2.796735428273678E-002,5.314226448535919E-002,-7.661705017089844E-001,6.015934944152832E-001,2.796735428273678E-002,5.314226448535919E-002,-7.661705017089844E-001,6.015934944152832E-001,
1.250566666666667E+009,4.104762524366379E-002,6.273489445447922E-002,-7.427501678466797E-001,6.074659228324890E-001,4.104762524366379E-002,6.273489445447922E-002,-7.427501678466797E-001,6.074659228324890E-001,
1.258933333333334E+009,6.170969828963280E-002,6.182265281677246E-002,-7.390554547309876E-001,6.287043690681458E-001,6.170969828963280E-002,6.182265281677246E-002,-7.390554547309876E-001,6.287043690681458E-001,
1.267300000000000E+009,8.105389773845673E-002,5.074417963624001E-002,-7.208358049392700E-001,6.421425342559815E-001,8.105389773845673E-002,5.074417963624001E-002,-7.208358049392700E-001,6.421425342559815E-001,
1.275666666666667E+009,8.966911584138870E-002,3.276853635907173E-002,-7.084308266639710E-001,6.499981284141541E-001,8.966911584138870E-002,3.276853635907173E-002,-7.084308266639710E-001,6.499981284141541E-001,
1.284033333333334E+009,9.183733165264130E-002,1.215235330164433E-002,-6.938281059265137E-001,6.921794414520264E-001,9.183733165264130E-002,1.215235330164433E-002,-6.938281059265137E-001,6.921794414520264E-001,
1.292400000000000E+009,8.133445680141449E-002,-6.019695661962032E-003,-6.799893975257874E-001,6.962376236915588E-001,8.133445680141449E-002,-6.019695661962032E-003,-6.799893975257874E-001,6.962376236915588E-001,
1.300766666666667E+009,6.209870800375938E-002,-1.359734591096640E-002,-6.593715548515320E-001,7.209520339965820E-001,6.209870800375938E-002,-1.359734591096640E-002,-6.593715548515320E-001,7.209520339965820E-001,
1.309133333333334E+009,4.234768077731133E-002,-1.166202407330275E-002,-6.323305964469910E-001,7.360259294509888E-001,4.234768077731133E-002,-1.166202407330275E-002,-6.323305964469910E-001,7.360259294509888E-001,
1.317500000000000E+009,2.829820290207863E-002,6.728439475409687E-004,-6.222072243690491E-001,7.675787210464478E-001,2.829820290207863E-002,6.728439475409687E-004,-6.222072243690491E-001,7.675787210464478E-001,
1.325866666666667E+009,2.377532795071602E-002,1.752401702105999E-002,-5.999212861061096E-001,7.812176942825317E-001,2.377532795071602E-002,1.752401702105999E-002,-5.999212861061096E-001,7.812176942825317E-001,
1.334233333333334E+009,3.208075091242790E-002,3.457241877913475E-002,-5.815030932426453E-001,7.854936122894287E-001,3.208075091242790E-002,3.457241877913475E-002,-5.815030932426453E-001,7.854936122894287E-001,
1.342600000000000E+009,4.776979982852936E-002,4.280720651149750E-002,-5.645880699157715E-001,8.001117110252380E-001,4.776979982852936E-002,4.280720651149750E-002,-5.645880699157715E-001,8.001117110252380E-001,
1.350966666666667E+009,6.737723946571350E-002,3.960768878459930E-002,-5.371268987655640E-001,8.142901062965393E-001,6.737723946571350E-002,3.960768878459930E-002,-5.371268987655640E-001,8.142901062965393E-001,
1.359333333333334E+009,8.247534930706024E-002,2.565305866301060E-002,-5.263383984565735E-001,8.107934594154358E-001,8.247534930706024E-002,2.565305866301060E-002,-5.263383984565735E-001,8.107934594154358E-001,
1.367700000000000E+009,8.804189413785934E-002,5.365320947021246E-003,-4.940235912799835E-001,8.315762281417847E-001,8.804189413785934E-002,5.365320947021246E-003,-4.940235912799835E-001,8.315762281417847E-001,
1.376066666666667E+009,8.452054113149643E-002,-1.624450832605362E-002,-4.781524837017059E-001,8.407899737358093E-001,8.452054113149643E-002,-1.624450832605362E-002,-4.781524837017059E-001,8.407899737358093E-001,
1.384433333333334E+009,6.794216483831406E-002,-3.101139701902866E-002,-4.633718729019165E-001,8.730750679969788E-001,6.794216483831406E-002,-3.101139701902866E-002,-4.633718729019165E-001,8.730750679969788E-001,
1.392800000000000E+009,4.790895804762840E-002,-3.273808211088181E-002,-4.407390058040619E-001,8.806148171424866E-001,4.790895804762840E-002,-3.273808211088181E-002,-4.407390058040619E-001,8.806148171424866E-001,
1.401166666666667E+009,2.791818045079708E-002,-2.471008338034153E-002,-4.146868884563446E-001,8.875947594642639E-001,2.791818045079708E-002,-2.471008338034153E-002,-4.146868884563446E-001,8.875947594642639E-001,
1.409533333333334E+009,1.526990253478289E-002,-7.144640665501356E-003,-3.858306109905243E-001,9.008736610412598E-001,1.526990253478289E-002,-7.144640665501356E-003,-3.858306109905243E-001,9.008736610412598E-001,
1.417900000000000E+009,1.658653095364571E-002,1.598781533539295E-002,-3.641352653503418E-001,8.964978456497192E-001,1.658653095364571E-002,1.598781533539295E-002,-3.641352653503418E-001,8.964978456497192E-001,
1.426266666666667E+009,2.777868136763573E-002,3.231504559516907E-002,-3.275462687015533E-001,9.231536984443665E-001,2.777868136763573E-002,3.231504559516907E-002,-3.275462687015533E-001,9.231536984443665E-001,
1.434633333333334E+009,4.787154868245125E-002,4.030797630548477E-002,-3.191331326961517E-001,9.160438179969788E-001,4.787154868245125E-002,4.030797630548477E-002,-3.191331326961517E-001,9.160438179969788E-001,
1.443000000000000E+009,6.782129406929016E-002,3.616965562105179E-002,-2.951555550098419E-001,9.235813021659851E-001,6.782129406929016E-002,3.616965562105179E-002,-2.951555550098419E-001,9.235813021659851E-001,
1.451366666666667E+009,8.345118165016174E-002,2.022540569305420E-002,-2.700690031051636E-001,9.223448038101196E-001,8.345118165016174E-002,2.022540569305420E-002,-2.700690031051636E-001,9.223448038101196E-001,
1.459733333333334E+009,8.972857147455216E-002,-4.464308149181306E-004,-2.428923398256302E-001,9.496468901634216E-001,8.972857147455216E-002,-4.464308149181306E-004,-2.428923398256302E-001,9.496468901634216E-001,
