% Version 1.00
%
%freq[Hz],re:Trc1_S11,im:Trc1_S11,re:Trc2_S21,im:Trc2_S21,re:Trc3_S11,im:Trc3_S11,re:Trc4_S21,im:Trc4_S21,
6.900000000000000E+008,-1.565081067383289E-002,1.882245577871800E-002,-4.718314707279205E-001,-8.755487799644470E-001,-1.565081067383289E-002,1.882245577871800E-002,-4.718314707279205E-001,-8.755487799644470E-001,
6.983666666666666E+008,-7.556302938610315E-003,1.885745115578175E-002,-4.973365664482117E-001,-8.657680153846741E-001,-7.556302938610315E-003,1.885745115578175E-002,-4.973365664482117E-001,-8.657680153846741E-001,
7.067333333333334E+008,-1.071081031113863E-003,1.359611097723246E-002,-5.218485593795776E-001,-8.394308686256409E-001,-1.071081031113863E-003,1.359611097723246E-002,-5.218485593795776E-001,-8.394308686256409E-001,
7.151000000000000E+008,-5.064657307229936E-004,4.625706933438778E-003,-5.561773180961609E-001,-8.388062715530396E-001,-5.064657307229936E-004,4.625706933438778E-003,-5.561773180961609E-001,-8.388062715530396E-001,
7.234666666666666E+008,-1.883950317278504E-003,-1.794611802324653E-003,-5.713517665863037E-001,-8.243039846420288E-001,-1.883950317278504E-003,-1.794611802324653E-003,-5.713517665863037E-001,-8.243039846420288E-001,
7.318333333333334E+008,-9.569615125656128E-003,-5.421421490609646E-003,-5.873217582702637E-001,-8.075062632560730E-001,-9.569615125656128E-003,-5.421421490609646E-003,-5.873217582702637E-001,-8.075062632560730E-001,
7.402000000000000E+008,-1.635304838418961E-002,-5.223552230745554E-003,-5.985287427902222E-001,-7.837055325508118E-001,-1.635304838418961E-002,-5.223552230745554E-003,-5.985287427902222E-001,-7.837055325508118E-001,
7.485666666666666E+008,-2.239691838622093E-002,-1.716087172098924E-005,-6.293829083442688E-001,-7.724509239196777E-001,-2.239691838622093E-002,-1.716087172098924E-005,-6.293829083442688E-001,-7.724509239196777E-001,
7.569333333333334E+008,-2.712522074580193E-002,8.341694250702858E-003,-6.484035849571228E-001,-7.610031366348267E-001,-2.712522074580193E-002,8.341694250702858E-003,-6.484035849571228E-001,-7.610031366348267E-001,
7.653000000000000E+008,-2.293477579951286E-002,1.656646281480789E-002,-6.556212306022644E-001,-7.412994503974915E-001,-2.293477579951286E-002,1.656646281480789E-002,-6.556212306022644E-001,-7.412994503974915E-001,
7.736666666666666E+008,-1.734058745205402E-002,2.238623239099979E-002,-6.697525382041931E-001,-7.372125983238220E-001,-1.734058745205402E-002,2.238623239099979E-002,-6.697525382041931E-001,-7.372125983238220E-001,
7.820333333333334E+008,-9.094067849218845E-003,2.578680031001568E-002,-7.044142484664917E-001,-7.111564278602600E-001,-9.094067849218845E-003,2.578680031001568E-002,-7.044142484664917E-001,-7.111564278602600E-001,
7.904000000000000E+008,5.984196905046701E-004,2.419590391218662E-002,-7.138358354568481E-001,-6.920206546783447E-001,5.984196905046701E-004,2.419590391218662E-002,-7.138358354568481E-001,-6.920206546783447E-001,
7.987666666666666E+008,4.573496989905834E-003,1.765452884137631E-002,-7.184141874313355E-001,-6.763662695884705E-001,4.573496989905834E-003,1.765452884137631E-002,-7.184141874313355E-001,-6.763662695884705E-001,
8.071333333333334E+008,7.584627717733383E-003,1.044810563325882E-002,-7.469396591186523E-001,-6.471898555755615E-001,7.584627717733383E-003,1.044810563325882E-002,-7.469396591186523E-001,-6.471898555755615E-001,
8.155000000000000E+008,3.874870948493481E-003,2.652388531714678E-003,-7.734415531158447E-001,-6.373114585876465E-001,3.874870948493481E-003,2.652388531714678E-003,-7.734415531158447E-001,-6.373114585876465E-001,
8.238666666666666E+008,-2.814380219206214E-003,-9.351707412861288E-004,-7.789521813392639E-001,-6.151582598686218E-001,-2.814380219206214E-003,-9.351707412861288E-004,-7.789521813392639E-001,-6.151582598686218E-001,
8.322333333333334E+008,-9.308434091508389E-003,-9.252618765458465E-004,-7.904395461082459E-001,-5.968872308731079E-001,-9.308434091508389E-003,-9.252618765458465E-004,-7.904395461082459E-001,-5.968872308731079E-001,
8.406000000000000E+008,-1.496325246989727E-002,8.645975030958653E-004,-8.029844164848328E-001,-5.765039324760437E-001,-1.496325246989727E-002,8.645975030958653E-004,-8.029844164848328E-001,-5.765039324760437E-001,
8.489666666666668E+008,-1.821372844278812E-002,1.032630447298288E-002,-8.170098066329956E-001,-5.476906299591065E-001,-1.821372844278812E-002,1.032630447298288E-002,-8.170098066329956E-001,-5.476906299591065E-001,
8.573333333333334E+008,-1.789691671729088E-002,1.721082068979740E-002,-8.200241923332214E-001,-5.182014703750610E-001,-1.789691671729088E-002,1.721082068979740E-002,-8.200241923332214E-001,-5.182014703750610E-001,
8.657000000000000E+008,-1.415960956364870E-002,2.460243366658688E-002,-8.487433791160584E-001,-5.237072706222534E-001,-1.415960956364870E-002,2.460243366658688E-002,-8.487433791160584E-001,-5.237072706222534E-001,
8.740666666666668E+008,-6.473773159086704E-003,2.904222533106804E-002,-8.555260300636292E-001,-4.983604252338409E-001,-6.473773159086704E-003,2.904222533106804E-002,-8.555260300636292E-001,-4.983604252338409E-001,
8.824333333333334E+008,1.224940060637891E-003,2.998865395784378E-002,-8.749130964279175E-001,-4.745362401008606E-001,1.224940060637891E-003,2.998865395784378E-002,-8.749130964279175E-001,-4.745362401008606E-001,
8.908000000000000E+008,8.829956874251366E-003,2.597971633076668E-002,-8.894975781440735E-001,-4.587261676788330E-001,8.829956874251366E-003,2.597971633076668E-002,-8.894975781440735E-001,-4.587261676788330E-001,
8.991666666666668E+008,1.375348120927811E-002,1.958395354449749E-002,-8.898228406906128E-001,-4.306112825870514E-001,1.375348120927811E-002,1.958395354449749E-002,-8.898228406906128E-001,-4.306112825870514E-001,
9.075333333333334E+008,1.373981498181820E-002,1.056101173162460E-002,-9.047066569328308E-001,-4.059428274631500E-001,1.373981498181820E-002,1.056101173162460E-002,-9.047066569328308E-001,-4.059428274631500E-001,
9.159000000000000E+008,1.137754507362843E-002,4.016772843897343E-003,-9.265395998954773E-001,-3.832104206085205E-001,1.137754507362843E-002,4.016772843897343E-003,-9.265395998954773E-001,-3.832104206085205E-001,
9.242666666666668E+008,3.825878491625190E-003,2.613791497424245E-003,-9.193691611289978E-001,-3.611142337322235E-001,3.825878491625190E-003,2.613791497424245E-003,-9.193691611289978E-001,-3.611142337322235E-001,
9.326333333333334E+008,-2.262247726321220E-003,3.320427611470223E-003,-9.359300136566162E-001,-3.486881256103516E-001,-2.262247726321220E-003,3.320427611470223E-003,-9.359300136566162E-001,-3.486881256103516E-001,
9.410000000000000E+008,-8.216072805225849E-003,6.505584344267845E-003,-9.480718374252319E-001,-3.139207065105438E-001,-8.216072805225849E-003,6.505584344267845E-003,-9.480718374252319E-001,-3.139207065105438E-001,
9.493666666666668E+008,-1.207200810313225E-002,1.477450411766768E-002,-9.536788463592529E-001,-2.847019731998444E-001,-1.207200810313225E-002,1.477450411766768E-002,-9.536788463592529E-001,-2.847019731998444E-001,
9.577333333333334E+008,-1.069409493356943E-002,2.347133122384548E-002,-9.618816971778870E-001,-2.708395421504974E-001,-1.069409493356943E-002,2.347133122384548E-002,-9.618816971778870E-001,-2.708395421504974E-001,
9.661000000000000E+008,-3.624630626291037E-003,3.007899597287178E-002,-9.644706249237061E-001,-2.294383943080902E-001,-3.624630626291037E-003,3.007899597287178E-002,-9.644706249237061E-001,-2.294383943080902E-001,
9.744666666666668E+008,5.472991615533829E-003,3.133055195212364E-002,-9.633095264434815E-001,-2.189293354749680E-001,5.472991615533829E-003,3.133055195212364E-002,-9.633095264434815E-001,-2.189293354749680E-001,
9.828333333333334E+008,1.384667772799730E-002,3.205580264329910E-002,-9.803484082221985E-001,-1.988485157489777E-001,1.384667772799730E-002,3.205580264329910E-002,-9.803484082221985E-001,-1.988485157489777E-001,
9.912000000000000E+008,2.382567897439003E-002,2.556318417191505E-002,-9.783222079277039E-001,-1.763673275709152E-001,2.382567897439003E-002,2.556318417191505E-002,-9.783222079277039E-001,-1.763673275709152E-001,
9.995666666666668E+008,2.754526957869530E-002,1.715341769158840E-002,-9.922928214073181E-001,-1.403504014015198E-001,2.754526957869530E-002,1.715341769158840E-002,-9.922928214073181E-001,-1.403504014015198E-001,
1.007933333333333E+009,3.037883155047894E-002,7.027759216725826E-003,-1.006869912147522E+000,-1.244021281599999E-001,3.037883155047894E-002,7.027759216725826E-003,-1.006869912147522E+000,-1.244021281599999E-001,
1.016300000000000E+009,2.338728494942188E-002,1.440575215383433E-005,-9.934266209602356E-001,-9.804034978151321E-002,2.338728494942188E-002,1.440575215383433E-005,-9.934266209602356E-001,-9.804034978151321E-002,
1.024666666666667E+009,1.515555661171675E-002,-5.242845043540001E-003,-9.904156327247620E-001,-7.258804887533188E-002,1.515555661171675E-002,-5.242845043540001E-003,-9.904156327247620E-001,-7.258804887533188E-002,
1.033033333333333E+009,8.466215804219246E-003,-1.836617826484144E-003,-9.988114237785339E-001,-4.762252420186997E-002,8.466215804219246E-003,-1.836617826484144E-003,-9.988114237785339E-001,-4.762252420186997E-002,
1.041400000000000E+009,-2.643388579599559E-004,2.419547876343131E-003,-1.000360250473023E+000,-2.640490792691708E-002,-2.643388579599559E-004,2.419547876343131E-003,-1.000360250473023E+000,-2.640490792691708E-002,
1.049766666666667E+009,-9.811585186980665E-005,1.221144758164883E-002,-9.886920452117920E-001,1.009468641132116E-002,-9.811585186980665E-005,1.221144758164883E-002,-9.886920452117920E-001,1.009468641132116E-002,
1.058133333333333E+009,1.913086744025350E-003,2.082157880067825E-002,-9.920536875724793E-001,3.211025521159172E-002,1.913086744025350E-003,2.082157880067825E-002,-9.920536875724793E-001,3.211025521159172E-002,
1.066500000000000E+009,1.134845335036516E-002,2.575421333312988E-002,-1.008738994598389E+000,6.482212245464325E-002,1.134845335036516E-002,2.575421333312988E-002,-1.008738994598389E+000,6.482212245464325E-002,
1.074866666666667E+009,2.316465973854065E-002,2.519015222787857E-002,-1.003706693649292E+000,8.602758496999741E-002,2.316465973854065E-002,2.519015222787857E-002,-1.003706693649292E+000,8.602758496999741E-002,
1.083233333333334E+009,3.148999437689781E-002,1.728297024965286E-002,-9.883283972740173E-001,1.086289808154106E-001,3.148999437689781E-002,1.728297024965286E-002,-9.883283972740173E-001,1.086289808154106E-001,
1.091600000000000E+009,3.758647665381432E-002,6.604075897485018E-003,-9.714000225067139E-001,1.293982416391373E-001,3.758647665381432E-002,6.604075897485018E-003,-9.714000225067139E-001,1.293982416391373E-001,
1.099966666666667E+009,3.715572878718376E-002,-7.406270131468773E-003,-9.680804610252380E-001,1.676282882690430E-001,3.715572878718376E-002,-7.406270131468773E-003,-9.680804610252380E-001,1.676282882690430E-001,
1.108333333333334E+009,2.869214676320553E-002,-1.662584394216538E-002,-9.662725329399109E-001,1.746826618909836E-001,2.869214676320553E-002,-1.662584394216538E-002,-9.662725329399109E-001,1.746826618909836E-001,
1.116700000000000E+009,1.732781156897545E-002,-2.155559882521629E-002,-9.623839855194092E-001,2.066492140293121E-001,1.732781156897545E-002,-2.155559882521629E-002,-9.623839855194092E-001,2.066492140293121E-001,
1.125066666666667E+009,4.024029709398747E-003,-1.823761500418186E-002,-9.644435048103333E-001,2.228685170412064E-001,4.024029709398747E-003,-1.823761500418186E-002,-9.644435048103333E-001,2.228685170412064E-001,
1.133433333333334E+009,-6.740903947502375E-003,-8.824650198221207E-003,-9.656335115432739E-001,2.670434415340424E-001,-6.740903947502375E-003,-8.824650198221207E-003,-9.656335115432739E-001,2.670434415340424E-001,
1.141800000000000E+009,-1.151309907436371E-002,4.713530186563730E-003,-9.450752139091492E-001,2.821178734302521E-001,-1.151309907436371E-002,4.713530186563730E-003,-9.450752139091492E-001,2.821178734302521E-001,
1.150166666666667E+009,-5.512586329132319E-003,2.053941786289215E-002,-9.365238547325134E-001,2.839073538780212E-001,-5.512586329132319E-003,2.053941786289215E-002,-9.365238547325134E-001,2.839073538780212E-001,
1.158533333333334E+009,7.388480473309755E-003,2.909647114574909E-002,-9.321676492691040E-001,3.249638676643372E-001,7.388480473309755E-003,2.909647114574909E-002,-9.321676492691040E-001,3.249638676643372E-001,
1.166900000000000E+009,2.470711618661881E-002,3.112952411174774E-002,-9.166837930679321E-001,3.460576832294464E-001,2.470711618661881E-002,3.112952411174774E-002,-9.166837930679321E-001,3.460576832294464E-001,
1.175266666666667E+009,4.047594964504242E-002,2.199764549732208E-002,-9.120172262191773E-001,3.766776323318481E-001,4.047594964504242E-002,2.199764549732208E-002,-9.120172262191773E-001,3.766776323318481E-001,
1.183633333333334E+009,5.268865078687668E-002,8.031839504837990E-003,-9.116398692131043E-001,3.883278071880341E-001,5.268865078687668E-002,8.031839504837990E-003,-9.116398692131043E-001,3.883278071880341E-001,
1.192000000000000E+009,5.339541286230087E-002,-1.106016896665096E-002,-8.989071249961853E-001,4.117563366889954E-001,5.339541286230087E-002,-1.106016896665096E-002,-8.989071249961853E-001,4.117563366889954E-001,
1.200366666666667E+009,4.458911716938019E-002,-2.892181463539600E-002,-8.865338563919067E-001,4.334184825420380E-001,4.458911716938019E-002,-2.892181463539600E-002,-8.865338563919067E-001,4.334184825420380E-001,
1.208733333333334E+009,2.896017022430897E-002,-3.939639404416084E-002,-8.817236423492432E-001,4.734418690204620E-001,2.896017022430897E-002,-3.939639404416084E-002,-8.817236423492432E-001,4.734418690204620E-001,
1.217100000000000E+009,1.160021685063839E-002,-3.907966986298561E-002,-8.775795698165894E-001,4.819367527961731E-001,1.160021685063839E-002,-3.907966986298561E-002,-8.775795698165894E-001,4.819367527961731E-001,
1.225466666666667E+009,-3.602132899686694E-003,-2.963816747069359E-002,-8.494722247123718E-001,5.084055662155151E-001,-3.602132899686694E-003,-2.963816747069359E-002,-8.494722247123718E-001,5.084055662155151E-001,
1.233833333333334E+009,-1.150448154658079E-002,-1.259977929294109E-002,-8.462645411491394E-001,5.192461013793945E-001,-1.150448154658079E-002,-1.259977929294109E-002,-8.462645411491394E-001,5.192461013793945E-001,
1.242200000000000E+009,-6.724347360432148E-003,3.797088051214814E-003,-8.236185908317566E-001,5.540516376495361E-001,-6.724347360432148E-003,3.797088051214814E-003,-8.236185908317566E-001,5.540516376495361E-001,
1.250566666666667E+009,3.023305209353566E-003,1.655993424355984E-002,-8.044156432151794E-001,5.627570748329163E-001,3.023305209353566E-003,1.655993424355984E-002,-8.044156432151794E-001,5.627570748329163E-001,
1.258933333333334E+009,2.239878289401531E-002,1.989067532122135E-002,-8.003809452056885E-001,5.853282809257507E-001,2.239878289401531E-002,1.989067532122135E-002,-8.003809452056885E-001,5.853282809257507E-001,
1.267300000000000E+009,4.057491943240166E-002,1.166601292788982E-002,-7.816432118415833E-001,6.014826297760010E-001,4.057491943240166E-002,1.166601292788982E-002,-7.816432118415833E-001,6.014826297760010E-001,
1.275666666666667E+009,5.046119913458824E-002,-5.458274856209755E-003,-7.679277062416077E-001,6.109032630920410E-001,5.046119913458824E-002,-5.458274856209755E-003,-7.679277062416077E-001,6.109032630920410E-001,
1.284033333333334E+009,5.340868979692459E-002,-2.616350911557674E-002,-7.540999650955200E-001,6.539395451545715E-001,5.340868979692459E-002,-2.616350911557674E-002,-7.540999650955200E-001,6.539395451545715E-001,
1.292400000000000E+009,4.326521977782250E-002,-4.604167863726616E-002,-7.407503128051758E-001,6.555000543594360E-001,4.326521977782250E-002,-4.604167863726616E-002,-7.407503128051758E-001,6.555000543594360E-001,
1.300766666666667E+009,2.364713139832020E-002,-5.653323233127594E-002,-7.200052142143250E-001,6.805682778358460E-001,2.364713139832020E-002,-5.653323233127594E-002,-7.200052142143250E-001,6.805682778358460E-001,
1.309133333333334E+009,1.756824669428170E-003,-5.651959776878357E-002,-6.968845725059509E-001,6.949673891067505E-001,1.756824669428170E-003,-5.651959776878357E-002,-6.968845725059509E-001,6.949673891067505E-001,
1.317500000000000E+009,-1.485677994787693E-002,-4.570643603801727E-002,-6.869024038314819E-001,7.255920767784119E-001,-1.485677994787693E-002,-4.570643603801727E-002,-6.869024038314819E-001,7.255920767784119E-001,
1.325866666666667E+009,-2.292526327073574E-002,-2.858844399452210E-002,-6.696479916572571E-001,7.416322827339172E-001,-2.292526327073574E-002,-2.858844399452210E-002,-6.696479916572571E-001,7.416322827339172E-001,
1.334233333333334E+009,-1.826686784625053E-002,-8.393771946430206E-003,-6.534005999565125E-001,7.487300038337708E-001,-1.826686784625053E-002,-8.393771946430206E-003,-6.534005999565125E-001,7.487300038337708E-001,
1.342600000000000E+009,-5.247540771961212E-003,4.049708135426045E-003,-6.380814313888550E-001,7.682778835296631E-001,-5.247540771961212E-003,4.049708135426045E-003,-6.380814313888550E-001,7.682778835296631E-001,
1.350966666666667E+009,1.337531302124262E-002,5.385641474276781E-003,-6.125754117965698E-001,7.829962372779846E-001,1.337531302124262E-002,5.385641474276781E-003,-6.125754117965698E-001,7.829962372779846E-001,
1.359333333333334E+009,2.833936363458633E-002,-5.121411755681038E-003,-5.993013381958008E-001,7.847700715065002E-001,2.833936363458633E-002,-5.121411755681038E-003,-5.993013381958008E-001,7.847700715065002E-001,
1.367700000000000E+009,3.516809269785881E-002,-2.326092496514320E-002,-5.650880336761475E-001,8.065656423568726E-001,3.516809269785881E-002,-2.326092496514320E-002,-5.650880336761475E-001,8.065656423568726E-001,
1.376066666666667E+009,3.205760195851326E-002,-4.472613707184792E-002,-5.504301190376282E-001,8.160542845726013E-001,3.205760195851326E-002,-4.472613707184792E-002,-5.504301190376282E-001,8.160542845726013E-001,
1.384433333333334E+009,1.554471906274557E-002,-6.169910356402397E-002,-5.358451008796692E-001,8.470686078071594E-001,1.554471906274557E-002,-6.169910356402397E-002,-5.358451008796692E-001,8.470686078071594E-001,
1.392800000000000E+009,-6.079430226236582E-003,-6.606478989124298E-002,-5.152882337570190E-001,8.539594411849976E-001,-6.079430226236582E-003,-6.606478989124298E-002,-5.152882337570190E-001,8.539594411849976E-001,
1.401166666666667E+009,-2.874470688402653E-002,-6.108573824167252E-002,-4.893377721309662E-001,8.613067269325256E-001,-2.874470688402653E-002,-6.108573824167252E-002,-4.893377721309662E-001,8.613067269325256E-001,
1.409533333333334E+009,-4.481695592403412E-002,-4.320785775780678E-002,-4.637578129768372E-001,8.771596550941467E-001,-4.481695592403412E-002,-4.320785775780678E-002,-4.637578129768372E-001,8.771596550941467E-001,
1.417900000000000E+009,-4.868672788143158E-002,-1.970071345567703E-002,-4.454991519451141E-001,8.733303546905518E-001,-4.868672788143158E-002,-1.970071345567703E-002,-4.454991519451141E-001,8.733303546905518E-001,
1.426266666666667E+009,-4.127868264913559E-002,-3.685394403873943E-005,-4.127967953681946E-001,9.043724536895752E-001,-4.127868264913559E-002,-3.685394403873943E-005,-4.127967953681946E-001,9.043724536895752E-001,
1.434633333333334E+009,-2.290065027773380E-002,1.302309893071652E-002,-4.042949974536896E-001,8.999376893043518E-001,-2.290065027773380E-002,1.302309893071652E-002,-4.042949974536896E-001,8.999376893043518E-001,
1.443000000000000E+009,-2.958267228677869E-003,1.529710367321968E-002,-3.807766735553742E-001,9.111304283142090E-001,-2.958267228677869E-003,1.529710367321968E-002,-3.807766735553742E-001,9.111304283142090E-001,
1.451366666666667E+009,1.430614292621613E-002,4.240265116095543E-003,-3.543948829174042E-001,9.142659306526184E-001,1.430614292621613E-002,4.240265116095543E-003,-3.543948829174042E-001,9.142659306526184E-001,
1.459733333333334E+009,2.263787947595120E-002,-1.309888530522585E-002,-3.288570046424866E-001,9.438158869743347E-001,2.263787947595120E-002,-1.309888530522585E-002,-3.288570046424866E-001,9.438158869743347E-001,
