% Version 1.00
%
%freq[Hz],re:Trc1_S11,im:Trc1_S11,re:Trc2_S21,im:Trc2_S21,re:Trc3_S11,im:Trc3_S11,re:Trc4_S21,im:Trc4_S21,
6.900000000000000E+008,-4.394140467047691E-002,2.562306635081768E-002,-4.977008104324341E-001,-8.377916216850281E-001,-4.394140467047691E-002,2.562306635081768E-002,-4.977008104324341E-001,-8.377916216850281E-001,
6.983666666666666E+008,-3.619951382279396E-002,2.640883997082710E-002,-5.244610309600830E-001,-8.247892260551453E-001,-3.619951382279396E-002,2.640883997082710E-002,-5.244610309600830E-001,-8.247892260551453E-001,
7.067333333333334E+008,-3.097699768841267E-002,2.220634743571281E-002,-5.457938909530640E-001,-8.005539774894714E-001,-3.097699768841267E-002,2.220634743571281E-002,-5.457938909530640E-001,-8.005539774894714E-001,
7.151000000000000E+008,-3.113027848303318E-002,1.477623730897903E-002,-5.810028910636902E-001,-7.984721064567566E-001,-3.113027848303318E-002,1.477623730897903E-002,-5.810028910636902E-001,-7.984721064567566E-001,
7.234666666666666E+008,-3.326411172747612E-002,9.814965538680553E-003,-5.936461091041565E-001,-7.823307514190674E-001,-3.326411172747612E-002,9.814965538680553E-003,-5.936461091041565E-001,-7.823307514190674E-001,
7.318333333333334E+008,-4.068466275930405E-002,7.692592684179544E-003,-6.109133362770081E-001,-7.665248513221741E-001,-4.068466275930405E-002,7.692592684179544E-003,-6.109133362770081E-001,-7.665248513221741E-001,
7.402000000000000E+008,-4.691273719072342E-002,9.869200177490711E-003,-6.216717362403870E-001,-7.420811057090759E-001,-4.691273719072342E-002,9.869200177490711E-003,-6.216717362403870E-001,-7.420811057090759E-001,
7.485666666666666E+008,-5.225235596299171E-002,1.664546132087708E-002,-6.509436964988709E-001,-7.284316420555115E-001,-5.225235596299171E-002,1.664546132087708E-002,-6.509436964988709E-001,-7.284316420555115E-001,
7.569333333333334E+008,-5.594655871391296E-002,2.621571719646454E-002,-6.683455705642700E-001,-7.145816087722778E-001,-5.594655871391296E-002,2.621571719646454E-002,-6.683455705642700E-001,-7.145816087722778E-001,
7.653000000000000E+008,-5.055956542491913E-002,3.509880229830742E-002,-6.776568293571472E-001,-6.956247687339783E-001,-5.055956542491913E-002,3.509880229830742E-002,-6.776568293571472E-001,-6.956247687339783E-001,
7.736666666666666E+008,-4.441833868622780E-002,4.175357148051262E-002,-6.895503997802734E-001,-6.919512152671814E-001,-4.441833868622780E-002,4.175357148051262E-002,-6.895503997802734E-001,-6.919512152671814E-001,
7.820333333333334E+008,-3.615452349185944E-002,4.582754895091057E-002,-7.222207784652710E-001,-6.634917259216309E-001,-3.615452349185944E-002,4.582754895091057E-002,-7.222207784652710E-001,-6.634917259216309E-001,
7.904000000000000E+008,-2.665487304329872E-002,4.490890353918076E-002,-7.313711047172546E-001,-6.459435224533081E-001,-2.665487304329872E-002,4.490890353918076E-002,-7.313711047172546E-001,-6.459435224533081E-001,
7.987666666666666E+008,-2.292018756270409E-002,3.995716571807861E-002,-7.369283437728882E-001,-6.301562190055847E-001,-2.292018756270409E-002,3.995716571807861E-002,-7.369283437728882E-001,-6.301562190055847E-001,
8.071333333333334E+008,-2.125913277268410E-002,3.380431234836578E-002,-7.628348469734192E-001,-5.979641079902649E-001,-2.125913277268410E-002,3.380431234836578E-002,-7.628348469734192E-001,-5.979641079902649E-001,
8.155000000000000E+008,-2.437511458992958E-002,2.727761119604111E-002,-7.895687222480774E-001,-5.871828198432922E-001,-2.437511458992958E-002,2.727761119604111E-002,-7.895687222480774E-001,-5.871828198432922E-001,
8.238666666666666E+008,-3.113346919417381E-002,2.543232589960098E-002,-7.949898838996887E-001,-5.638963580131531E-001,-3.113346919417381E-002,2.543232589960098E-002,-7.949898838996887E-001,-5.638963580131531E-001,
8.322333333333334E+008,-3.669069707393646E-002,2.700955606997013E-002,-8.035525083541870E-001,-5.455494523048401E-001,-3.669069707393646E-002,2.700955606997013E-002,-8.035525083541870E-001,-5.455494523048401E-001,
8.406000000000000E+008,-4.132565855979919E-002,3.001854941248894E-002,-8.154448270797730E-001,-5.232558250427246E-001,-4.132565855979919E-002,3.001854941248894E-002,-8.154448270797730E-001,-5.232558250427246E-001,
8.489666666666668E+008,-4.277993366122246E-002,4.097478836774826E-002,-8.271538615226746E-001,-4.946992993354797E-001,-4.277993366122246E-002,4.097478836774826E-002,-8.271538615226746E-001,-4.946992993354797E-001,
8.573333333333334E+008,-4.068941995501518E-002,4.870727285742760E-002,-8.293142914772034E-001,-4.645332694053650E-001,-4.068941995501518E-002,4.870727285742760E-002,-8.293142914772034E-001,-4.645332694053650E-001,
8.657000000000000E+008,-3.542728349566460E-002,5.627242848277092E-002,-8.555632829666138E-001,-4.692098796367645E-001,-3.542728349566460E-002,5.627242848277092E-002,-8.555632829666138E-001,-4.692098796367645E-001,
8.740666666666668E+008,-2.673184685409069E-002,6.116772815585136E-002,-8.623448610305786E-001,-4.426981806755066E-001,-2.673184685409069E-002,6.116772815585136E-002,-8.623448610305786E-001,-4.426981806755066E-001,
8.824333333333334E+008,-1.870303414762020E-002,6.273497641086578E-002,-8.809237480163574E-001,-4.198884069919586E-001,-1.870303414762020E-002,6.273497641086578E-002,-8.809237480163574E-001,-4.198884069919586E-001,
8.908000000000000E+008,-1.096807885915041E-002,5.962829291820526E-002,-8.943099975585938E-001,-4.021267592906952E-001,-1.096807885915041E-002,5.962829291820526E-002,-8.943099975585938E-001,-4.021267592906952E-001,
8.991666666666668E+008,-5.811926908791065E-003,5.410087108612061E-002,-8.947702050209045E-001,-3.759835064411163E-001,-5.811926908791065E-003,5.410087108612061E-002,-8.947702050209045E-001,-3.759835064411163E-001,
9.075333333333334E+008,-5.831527523696423E-003,4.667434841394424E-002,-9.087345600128174E-001,-3.507188260555267E-001,-5.831527523696423E-003,4.667434841394424E-002,-9.087345600128174E-001,-3.507188260555267E-001,
9.159000000000000E+008,-8.620695210993290E-003,4.120475426316261E-002,-9.299774169921875E-001,-3.253286778926849E-001,-8.620695210993290E-003,4.120475426316261E-002,-9.299774169921875E-001,-3.253286778926849E-001,
9.242666666666668E+008,-1.545552536845207E-002,4.145849868655205E-002,-9.205918908119202E-001,-3.041459918022156E-001,-1.545552536845207E-002,4.145849868655205E-002,-9.205918908119202E-001,-3.041459918022156E-001,
9.326333333333334E+008,-2.031566388905048E-002,4.380403086543083E-002,-9.368365406990051E-001,-2.895738482475281E-001,-2.031566388905048E-002,4.380403086543083E-002,-9.368365406990051E-001,-2.895738482475281E-001,
9.410000000000000E+008,-2.422941289842129E-002,4.783487319946289E-002,-9.454230070114136E-001,-2.544411420822144E-001,-2.422941289842129E-002,4.783487319946289E-002,-9.454230070114136E-001,-2.544411420822144E-001,
9.493666666666668E+008,-2.589240111410618E-002,5.680311098694801E-002,-9.501357078552246E-001,-2.248069345951080E-001,-2.589240111410618E-002,5.680311098694801E-002,-9.501357078552246E-001,-2.248069345951080E-001,
9.577333333333334E+008,-2.208978123962879E-002,6.650369614362717E-002,-9.560917615890503E-001,-2.102940678596497E-001,-2.208978123962879E-002,6.650369614362717E-002,-9.560917615890503E-001,-2.102940678596497E-001,
9.661000000000000E+008,-1.338324043899775E-002,7.303336262702942E-002,-9.562966227531433E-001,-1.693111360073090E-001,-1.338324043899775E-002,7.303336262702942E-002,-9.562966227531433E-001,-1.693111360073090E-001,
9.744666666666668E+008,-2.756201429292560E-003,7.336606830358505E-002,-9.544591307640076E-001,-1.599700450897217E-001,-2.756201429292560E-003,7.336606830358505E-002,-9.544591307640076E-001,-1.599700450897217E-001,
9.828333333333334E+008,6.350188050419092E-003,7.436884194612503E-002,-9.704406857490540E-001,-1.408926546573639E-001,6.350188050419092E-003,7.436884194612503E-002,-9.704406857490540E-001,-1.408926546573639E-001,
9.912000000000000E+008,1.646823622286320E-002,6.829237937927246E-002,-9.676101803779602E-001,-1.182922124862671E-001,1.646823622286320E-002,6.829237937927246E-002,-9.676101803779602E-001,-1.182922124862671E-001,
9.995666666666668E+008,1.991303078830242E-002,6.091174110770226E-002,-9.801800251007080E-001,-8.123492449522018E-002,1.991303078830242E-002,6.091174110770226E-002,-9.801800251007080E-001,-8.123492449522018E-002,
1.007933333333333E+009,2.327769994735718E-002,5.171158537268639E-002,-9.936142563819885E-001,-6.489199399948120E-002,2.327769994735718E-002,5.171158537268639E-002,-9.936142563819885E-001,-6.489199399948120E-002,
1.016300000000000E+009,1.679264008998871E-002,4.585537686944008E-002,-9.797945022583008E-001,-3.855476900935173E-002,1.679264008998871E-002,4.585537686944008E-002,-9.797945022583008E-001,-3.855476900935173E-002,
1.024666666666667E+009,9.088154882192612E-003,4.221219196915627E-002,-9.752361774444580E-001,-1.248680520802736E-002,9.088154882192612E-003,4.221219196915627E-002,-9.752361774444580E-001,-1.248680520802736E-002,
1.033033333333333E+009,3.985439892858267E-003,4.692444950342178E-002,-9.816209077835083E-001,1.402343809604645E-002,3.985439892858267E-003,4.692444950342178E-002,-9.816209077835083E-001,1.402343809604645E-002,
1.041400000000000E+009,-2.467625075951219E-003,5.177462100982666E-002,-9.816941022872925E-001,3.444414585828781E-002,-2.467625075951219E-003,5.177462100982666E-002,-9.816941022872925E-001,3.444414585828781E-002,
1.049766666666667E+009,8.775889873504639E-004,6.112746149301529E-002,-9.667348861694336E-001,7.027924805879593E-002,8.775889873504639E-004,6.112746149301529E-002,-9.667348861694336E-001,7.027924805879593E-002,
1.058133333333333E+009,5.322514567524195E-003,7.002563774585724E-002,-9.682293534278870E-001,9.182042628526688E-002,5.322514567524195E-003,7.002563774585724E-002,-9.682293534278870E-001,9.182042628526688E-002,
1.066500000000000E+009,1.683111861348152E-002,7.421904057264328E-002,-9.824796915054321E-001,1.259990334510803E-001,1.683111861348152E-002,7.421904057264328E-002,-9.824796915054321E-001,1.259990334510803E-001,
1.074866666666667E+009,3.031368181109428E-002,7.295389473438263E-002,-9.762985110282898E-001,1.449312716722488E-001,3.031368181109428E-002,7.295389473438263E-002,-9.762985110282898E-001,1.449312716722488E-001,
1.083233333333334E+009,3.899814933538437E-002,6.495164334774017E-002,-9.603273868560791E-001,1.665074825286865E-001,3.899814933538437E-002,6.495164334774017E-002,-9.603273868560791E-001,1.665074825286865E-001,
1.091600000000000E+009,4.549649357795715E-002,5.461724847555161E-002,-9.429000616073608E-001,1.854186952114105E-001,4.549649357795715E-002,5.461724847555161E-002,-9.429000616073608E-001,1.854186952114105E-001,
1.099966666666667E+009,4.462773725390434E-002,4.165842011570931E-002,-9.376488924026489E-001,2.236848771572113E-001,4.462773725390434E-002,4.165842011570931E-002,-9.376488924026489E-001,2.236848771572113E-001,
1.108333333333334E+009,3.645514696836472E-002,3.396281972527504E-002,-9.378492832183838E-001,2.323311418294907E-001,3.645514696836472E-002,3.396281972527504E-002,-9.378492832183838E-001,2.323311418294907E-001,
1.116700000000000E+009,2.593060024082661E-002,3.110382147133350E-002,-9.304912090301514E-001,2.651396989822388E-001,2.593060024082661E-002,3.110382147133350E-002,-9.304912090301514E-001,2.651396989822388E-001,
1.125066666666667E+009,1.480118744075298E-002,3.591167926788330E-002,-9.312312006950378E-001,2.819093167781830E-001,1.480118744075298E-002,3.591167926788330E-002,-9.312312006950378E-001,2.819093167781830E-001,
1.133433333333334E+009,7.105140015482903E-003,4.560822620987892E-002,-9.276123046875000E-001,3.264653980731964E-001,7.105140015482903E-003,4.560822620987892E-002,-9.276123046875000E-001,3.264653980731964E-001,
1.141800000000000E+009,6.040087435394526E-003,5.872435867786408E-002,-9.041187167167664E-001,3.398500978946686E-001,6.040087435394526E-003,5.872435867786408E-002,-9.041187167167664E-001,3.398500978946686E-001,
1.150166666666667E+009,1.537593081593514E-002,7.256358861923218E-002,-8.945336937904358E-001,3.409977257251740E-001,1.537593081593514E-002,7.256358861923218E-002,-8.945336937904358E-001,3.409977257251740E-001,
1.158533333333334E+009,3.113512881100178E-002,7.908826321363449E-002,-8.875274062156677E-001,3.802200853824616E-001,3.113512881100178E-002,7.908826321363449E-002,-8.875274062156677E-001,3.802200853824616E-001,
1.166900000000000E+009,5.022589862346649E-002,7.864228636026382E-002,-8.721660971641541E-001,3.995293080806732E-001,5.022589862346649E-002,7.864228636026382E-002,-8.721660971641541E-001,3.995293080806732E-001,
1.175266666666667E+009,6.588517874479294E-002,6.752310693264008E-002,-8.661103248596191E-001,4.277304410934448E-001,6.588517874479294E-002,6.752310693264008E-002,-8.661103248596191E-001,4.277304410934448E-001,
1.183633333333334E+009,7.784745097160339E-002,5.306295678019524E-002,-8.644624352455139E-001,4.408427774906158E-001,7.784745097160339E-002,5.306295678019524E-002,-8.644624352455139E-001,4.408427774906158E-001,
1.192000000000000E+009,7.782606780529022E-002,3.486743941903114E-002,-8.521065711975098E-001,4.619500637054443E-001,7.782606780529022E-002,3.486743941903114E-002,-8.521065711975098E-001,4.619500637054443E-001,
1.200366666666667E+009,6.833761185407639E-002,1.903923787176609E-002,-8.391529321670532E-001,4.841853082180023E-001,6.833761185407639E-002,1.903923787176609E-002,-8.391529321670532E-001,4.841853082180023E-001,
1.208733333333334E+009,5.339739844202995E-002,1.086148060858250E-002,-8.315887451171875E-001,5.256926417350769E-001,5.339739844202995E-002,1.086148060858250E-002,-8.315887451171875E-001,5.256926417350769E-001,
1.217100000000000E+009,3.781034797430039E-002,1.277951244264841E-002,-8.284876346588135E-001,5.349143147468567E-001,3.781034797430039E-002,1.277951244264841E-002,-8.284876346588135E-001,5.349143147468567E-001,
1.225466666666667E+009,2.584027312695980E-002,2.384530939161778E-002,-7.954825758934021E-001,5.599448680877686E-001,2.584027312695980E-002,2.384530939161778E-002,-7.954825758934021E-001,5.599448680877686E-001,
1.233833333333334E+009,2.188965864479542E-002,4.029838740825653E-002,-7.895764112472534E-001,5.713119506835938E-001,2.188965864479542E-002,4.029838740825653E-002,-7.895764112472534E-001,5.713119506835938E-001,
1.242200000000000E+009,3.045054152607918E-002,5.407396703958511E-002,-7.637920975685120E-001,6.049054861068726E-001,3.045054152607918E-002,5.407396703958511E-002,-7.637920975685120E-001,6.049054861068726E-001,
1.250566666666667E+009,4.359970614314079E-002,6.332916021347046E-002,-7.425873279571533E-001,6.076028943061829E-001,4.359970614314079E-002,6.332916021347046E-002,-7.425873279571533E-001,6.076028943061829E-001,
1.258933333333334E+009,6.417296826839447E-002,6.258807331323624E-002,-7.376414537429810E-001,6.292736530303955E-001,6.417296826839447E-002,6.258807331323624E-002,-7.376414537429810E-001,6.292736530303955E-001,
1.267300000000000E+009,8.324934542179108E-002,5.122509226202965E-002,-7.184681892395020E-001,6.437786221504211E-001,8.324934542179108E-002,5.122509226202965E-002,-7.184681892395020E-001,6.437786221504211E-001,
1.275666666666667E+009,9.194687753915787E-002,3.322857990860939E-002,-7.063982486724854E-001,6.513805389404297E-001,9.194687753915787E-002,3.322857990860939E-002,-7.063982486724854E-001,6.513805389404297E-001,
1.284033333333334E+009,9.401721507310867E-002,1.239982433617115E-002,-6.910633444786072E-001,6.930407881736755E-001,9.401721507310867E-002,1.239982433617115E-002,-6.910633444786072E-001,6.930407881736755E-001,
1.292400000000000E+009,8.376051485538483E-002,-5.705795716494322E-003,-6.787186264991760E-001,6.976124644279480E-001,8.376051485538483E-002,-5.705795716494322E-003,-6.787186264991760E-001,6.976124644279480E-001,
1.300766666666667E+009,6.447817385196686E-002,-1.348569244146347E-002,-6.553101539611816E-001,7.210767865180969E-001,6.447817385196686E-002,-1.348569244146347E-002,-6.553101539611816E-001,7.210767865180969E-001,
1.309133333333334E+009,4.458621144294739E-002,-1.147575303912163E-002,-6.315912604331970E-001,7.354988455772400E-001,4.458621144294739E-002,-1.147575303912163E-002,-6.315912604331970E-001,7.354988455772400E-001,
1.317500000000000E+009,3.042589500546455E-002,9.439752320758998E-004,-6.175949573516846E-001,7.653521895408630E-001,3.042589500546455E-002,9.439752320758998E-004,-6.175949573516846E-001,7.653521895408630E-001,
1.325866666666667E+009,2.638687565922737E-002,1.778532750904560E-002,-5.973911881446838E-001,7.805047035217285E-001,2.638687565922737E-002,1.778532750904560E-002,-5.973911881446838E-001,7.805047035217285E-001,
1.334233333333334E+009,3.477834910154343E-002,3.491617739200592E-002,-5.799139142036438E-001,7.852162122726440E-001,3.477834910154343E-002,3.491617739200592E-002,-5.799139142036438E-001,7.852162122726440E-001,
1.342600000000000E+009,5.040587857365608E-002,4.330524802207947E-002,-5.614462494850159E-001,8.006073236465454E-001,5.040587857365608E-002,4.330524802207947E-002,-5.614462494850159E-001,8.006073236465454E-001,
1.350966666666667E+009,7.031004130840302E-002,3.961258381605148E-002,-5.366299152374268E-001,8.123271465301514E-001,7.031004130840302E-002,3.961258381605148E-002,-5.366299152374268E-001,8.123271465301514E-001,
1.359333333333334E+009,8.480811864137650E-002,2.563401870429516E-002,-5.237683057785034E-001,8.127358555793762E-001,8.480811864137650E-002,2.563401870429516E-002,-5.237683057785034E-001,8.127358555793762E-001,
1.367700000000000E+009,9.056899696588516E-002,5.558236967772245E-003,-4.904028773307800E-001,8.309475779533386E-001,9.056899696588516E-002,5.558236967772245E-003,-4.904028773307800E-001,8.309475779533386E-001,
1.376066666666667E+009,8.674214780330658E-002,-1.621754840016365E-002,-4.756291508674622E-001,8.395063877105713E-001,8.674214780330658E-002,-1.621754840016365E-002,-4.756291508674622E-001,8.395063877105713E-001,
1.384433333333334E+009,6.996524333953857E-002,-3.106706403195858E-002,-4.605232477188110E-001,8.704388141632080E-001,6.996524333953857E-002,-3.106706403195858E-002,-4.605232477188110E-001,8.704388141632080E-001,
1.392800000000000E+009,4.999857768416405E-002,-3.291035816073418E-002,-4.377488195896149E-001,8.802556395530701E-001,4.999857768416405E-002,-3.291035816073418E-002,-4.377488195896149E-001,8.802556395530701E-001,
1.401166666666667E+009,3.018926456570625E-002,-2.483361028134823E-002,-4.113238453865051E-001,8.863008022308350E-001,3.018926456570625E-002,-2.483361028134823E-002,-4.113238453865051E-001,8.863008022308350E-001,
1.409533333333334E+009,1.772888191044331E-002,-7.156323175877333E-003,-3.815050423145294E-001,9.008511304855347E-001,1.772888191044331E-002,-7.156323175877333E-003,-3.815050423145294E-001,9.008511304855347E-001,
1.417900000000000E+009,1.915977708995342E-002,1.592033915221691E-002,-3.629057407379150E-001,8.961904644966126E-001,1.915977708995342E-002,1.592033915221691E-002,-3.629057407379150E-001,8.961904644966126E-001,
1.426266666666667E+009,3.021716326475143E-002,3.215458244085312E-002,-3.250021040439606E-001,9.216645956039429E-001,3.021716326475143E-002,3.215458244085312E-002,-3.250021040439606E-001,9.216645956039429E-001,
1.434633333333334E+009,5.040084570646286E-002,3.972775861620903E-002,-3.165016472339630E-001,9.155284762382507E-001,5.040084570646286E-002,3.972775861620903E-002,-3.165016472339630E-001,9.155284762382507E-001,
1.443000000000000E+009,7.035272568464279E-002,3.588333725929260E-002,-2.926062345504761E-001,9.223850965499878E-001,7.035272568464279E-002,3.588333725929260E-002,-2.926062345504761E-001,9.223850965499878E-001,
1.451366666666667E+009,8.593277633190155E-002,1.955484226346016E-002,-2.674380540847778E-001,9.224285483360291E-001,8.593277633190155E-002,1.955484226346016E-002,-2.674380540847778E-001,9.224285483360291E-001,
1.459733333333334E+009,9.211178869009018E-002,-1.147000235505402E-003,-2.420286238193512E-001,9.479184150695801E-001,9.211178869009018E-002,-1.147000235505402E-003,-2.420286238193512E-001,9.479184150695801E-001,
