% Version 1.00
%
%freq[Hz],re:Trc1_S11,im:Trc1_S11,re:Trc2_S21,im:Trc2_S21,re:Trc3_S11,im:Trc3_S11,re:Trc4_S21,im:Trc4_S21,
6.900000000000000E+008,-4.995004087686539E-002,3.813774138689041E-002,-5.023926496505737E-001,-8.507593870162964E-001,-4.995004087686539E-002,3.813774138689041E-002,-5.023926496505737E-001,-8.507593870162964E-001,
6.983666666666666E+008,-4.221567884087563E-002,3.856416419148445E-002,-5.282497406005859E-001,-8.390800356864929E-001,-4.221567884087563E-002,3.856416419148445E-002,-5.282497406005859E-001,-8.390800356864929E-001,
7.067333333333334E+008,-3.601849451661110E-002,3.406031057238579E-002,-5.520452857017517E-001,-8.144549131393433E-001,-3.601849451661110E-002,3.406031057238579E-002,-5.520452857017517E-001,-8.144549131393433E-001,
7.151000000000000E+008,-3.525651618838310E-002,2.638283371925354E-002,-5.870103240013123E-001,-8.113648891448975E-001,-3.525651618838310E-002,2.638283371925354E-002,-5.870103240013123E-001,-8.113648891448975E-001,
7.234666666666666E+008,-3.760780766606331E-002,2.140357904136181E-002,-6.024143099784851E-001,-7.976107001304627E-001,-3.760780766606331E-002,2.140357904136181E-002,-6.024143099784851E-001,-7.976107001304627E-001,
7.318333333333334E+008,-4.556872695684433E-002,1.900952681899071E-002,-6.180545091629028E-001,-7.835680842399597E-001,-4.556872695684433E-002,1.900952681899071E-002,-6.180545091629028E-001,-7.835680842399597E-001,
7.402000000000000E+008,-5.126883089542389E-002,2.128583379089832E-002,-6.300761699676514E-001,-7.547297477722168E-001,-5.126883089542389E-002,2.128583379089832E-002,-6.300761699676514E-001,-7.547297477722168E-001,
7.485666666666666E+008,-5.685934796929359E-002,2.806185372173786E-002,-6.593236327171326E-001,-7.391912937164307E-001,-5.685934796929359E-002,2.806185372173786E-002,-6.593236327171326E-001,-7.391912937164307E-001,
7.569333333333334E+008,-6.094253808259964E-002,3.826998919248581E-002,-6.803216934204102E-001,-7.265754938125610E-001,-6.094253808259964E-002,3.826998919248581E-002,-6.803216934204102E-001,-7.265754938125610E-001,
7.653000000000000E+008,-5.529259145259857E-002,4.723041877150536E-002,-6.849305629730225E-001,-7.104045152664185E-001,-5.529259145259857E-002,4.723041877150536E-002,-6.849305629730225E-001,-7.104045152664185E-001,
7.736666666666666E+008,-4.920374602079392E-002,5.369798839092255E-002,-6.992155313491821E-001,-7.030519247055054E-001,-4.920374602079392E-002,5.369798839092255E-002,-6.992155313491821E-001,-7.030519247055054E-001,
7.820333333333334E+008,-4.048224166035652E-002,5.760440975427628E-002,-7.316528558731079E-001,-6.761711239814758E-001,-4.048224166035652E-002,5.760440975427628E-002,-7.316528558731079E-001,-6.761711239814758E-001,
7.904000000000000E+008,-3.018637374043465E-002,5.698929354548454E-002,-7.450019717216492E-001,-6.578792333602905E-001,-3.018637374043465E-002,5.698929354548454E-002,-7.450019717216492E-001,-6.578792333602905E-001,
7.987666666666666E+008,-2.641434967517853E-002,5.134040117263794E-002,-7.435398101806641E-001,-6.413661837577820E-001,-2.641434967517853E-002,5.134040117263794E-002,-7.435398101806641E-001,-6.413661837577820E-001,
8.071333333333334E+008,-2.454676479101181E-002,4.460142925381661E-002,-7.711895704269409E-001,-6.119513511657715E-001,-2.454676479101181E-002,4.460142925381661E-002,-7.711895704269409E-001,-6.119513511657715E-001,
8.155000000000000E+008,-2.694168873131275E-002,3.720562532544136E-002,-7.977485656738281E-001,-5.967528223991394E-001,-2.694168873131275E-002,3.720562532544136E-002,-7.977485656738281E-001,-5.967528223991394E-001,
8.238666666666666E+008,-3.385794907808304E-002,3.541919216513634E-002,-8.028995394706726E-001,-5.778432488441467E-001,-3.385794907808304E-002,3.541919216513634E-002,-8.028995394706726E-001,-5.778432488441467E-001,
8.322333333333334E+008,-3.953469172120094E-002,3.656223788857460E-002,-8.143875598907471E-001,-5.607986450195313E-001,-3.953469172120094E-002,3.656223788857460E-002,-8.143875598907471E-001,-5.607986450195313E-001,
8.406000000000000E+008,-4.412926733493805E-002,4.013952612876892E-002,-8.230619430541992E-001,-5.332589745521545E-001,-4.412926733493805E-002,4.013952612876892E-002,-8.230619430541992E-001,-5.332589745521545E-001,
8.489666666666668E+008,-4.544636979699135E-002,5.193402618169785E-002,-8.397076725959778E-001,-5.057377815246582E-001,-4.544636979699135E-002,5.193402618169785E-002,-8.397076725959778E-001,-5.057377815246582E-001,
8.573333333333334E+008,-4.373033717274666E-002,5.974679440259934E-002,-8.408092260360718E-001,-4.735512137413025E-001,-4.373033717274666E-002,5.974679440259934E-002,-8.408092260360718E-001,-4.735512137413025E-001,
8.657000000000000E+008,-3.841052576899529E-002,6.722964346408844E-002,-8.717229962348938E-001,-4.776510298252106E-001,-3.841052576899529E-002,6.722964346408844E-002,-8.717229962348938E-001,-4.776510298252106E-001,
8.740666666666668E+008,-2.944765612483025E-002,7.262904196977615E-002,-8.756074905395508E-001,-4.526306688785553E-001,-2.944765612483025E-002,7.262904196977615E-002,-8.756074905395508E-001,-4.526306688785553E-001,
8.824333333333334E+008,-2.118975482881069E-002,7.366590946912766E-002,-8.929956555366516E-001,-4.286884069442749E-001,-2.118975482881069E-002,7.366590946912766E-002,-8.929956555366516E-001,-4.286884069442749E-001,
8.908000000000000E+008,-1.367649156600237E-002,7.042620331048966E-002,-9.075217247009277E-001,-4.131877720355988E-001,-1.367649156600237E-002,7.042620331048966E-002,-9.075217247009277E-001,-4.131877720355988E-001,
8.991666666666668E+008,-8.179912343621254E-003,6.429331004619598E-002,-9.038687348365784E-001,-3.874568045139313E-001,-8.179912343621254E-003,6.429331004619598E-002,-9.038687348365784E-001,-3.874568045139313E-001,
9.075333333333334E+008,-7.889105938374996E-003,5.676158517599106E-002,-9.217703342437744E-001,-3.608170151710510E-001,-7.889105938374996E-003,5.676158517599106E-002,-9.217703342437744E-001,-3.608170151710510E-001,
9.159000000000000E+008,-1.091039180755615E-002,5.103281512856484E-002,-9.432255625724793E-001,-3.337496519088745E-001,-1.091039180755615E-002,5.103281512856484E-002,-9.432255625724793E-001,-3.337496519088745E-001,
9.242666666666668E+008,-1.742677576839924E-002,5.111208185553551E-002,-9.322201013565064E-001,-3.124411404132843E-001,-1.742677576839924E-002,5.111208185553551E-002,-9.322201013565064E-001,-3.124411404132843E-001,
9.326333333333334E+008,-2.218312956392765E-002,5.330304428935051E-002,-9.540544748306274E-001,-2.984725534915924E-001,-2.218312956392765E-002,5.330304428935051E-002,-9.540544748306274E-001,-2.984725534915924E-001,
9.410000000000000E+008,-2.620566263794899E-002,5.748684704303742E-002,-9.562410116195679E-001,-2.608426809310913E-001,-2.620566263794899E-002,5.748684704303742E-002,-9.562410116195679E-001,-2.608426809310913E-001,
9.493666666666668E+008,-2.774426154792309E-002,6.716979295015335E-002,-9.634566903114319E-001,-2.340977042913437E-001,-2.774426154792309E-002,6.716979295015335E-002,-9.634566903114319E-001,-2.340977042913437E-001,
9.577333333333334E+008,-2.385040745139122E-002,7.694377005100250E-002,-9.696869254112244E-001,-2.176810801029205E-001,-2.385040745139122E-002,7.694377005100250E-002,-9.696869254112244E-001,-2.176810801029205E-001,
9.661000000000000E+008,-1.563119329512119E-002,8.400718867778778E-002,-9.704487323760986E-001,-1.768631786108017E-001,-1.563119329512119E-002,8.400718867778778E-002,-9.704487323760986E-001,-1.768631786108017E-001,
9.744666666666668E+008,-4.771082196384668E-003,8.413574844598770E-002,-9.691742658615112E-001,-1.651942431926727E-001,-4.771082196384668E-003,8.413574844598770E-002,-9.691742658615112E-001,-1.651942431926727E-001,
9.828333333333334E+008,4.092866554856300E-003,8.554806560277939E-002,-9.842895269393921E-001,-1.455696672201157E-001,4.092866554856300E-003,8.554806560277939E-002,-9.842895269393921E-001,-1.455696672201157E-001,
9.912000000000000E+008,1.460318733006716E-002,7.892328500747681E-002,-9.821152687072754E-001,-1.233776509761810E-001,1.460318733006716E-002,7.892328500747681E-002,-9.821152687072754E-001,-1.233776509761810E-001,
9.995666666666668E+008,1.771804317831993E-002,7.103663682937622E-002,-9.940047264099121E-001,-9.196872264146805E-002,1.771804317831993E-002,7.103663682937622E-002,-9.940047264099121E-001,-9.196872264146805E-002,
1.007933333333333E+009,2.173512987792492E-002,6.204325333237648E-002,-1.010151386260986E+000,-7.074748724699020E-002,2.173512987792492E-002,6.204325333237648E-002,-1.010151386260986E+000,-7.074748724699020E-002,
1.016300000000000E+009,1.554812677204609E-002,5.586028099060059E-002,-9.995792508125305E-001,-4.426659643650055E-002,1.554812677204609E-002,5.586028099060059E-002,-9.995792508125305E-001,-4.426659643650055E-002,
1.024666666666667E+009,7.367895450443029E-003,5.150166898965836E-002,-9.928646683692932E-001,-1.701789163053036E-002,7.367895450443029E-003,5.150166898965836E-002,-9.928646683692932E-001,-1.701789163053036E-002,
1.033033333333333E+009,2.616986166685820E-003,5.676345154643059E-002,-9.979030489921570E-001,7.709325291216373E-003,2.616986166685820E-003,5.676345154643059E-002,-9.979030489921570E-001,7.709325291216373E-003,
1.041400000000000E+009,-3.590705804526806E-003,6.188213452696800E-002,-9.971804618835449E-001,3.029343485832214E-002,-3.590705804526806E-003,6.188213452696800E-002,-9.971804618835449E-001,3.029343485832214E-002,
1.049766666666667E+009,-7.175189966801554E-005,7.119860500097275E-002,-9.865999221801758E-001,6.543811410665512E-002,-7.175189966801554E-005,7.119860500097275E-002,-9.865999221801758E-001,6.543811410665512E-002,
1.058133333333333E+009,4.232220817357302E-003,8.054181188344955E-002,-9.860441088676453E-001,8.857707679271698E-002,4.232220817357302E-003,8.054181188344955E-002,-9.860441088676453E-001,8.857707679271698E-002,
1.066500000000000E+009,1.559250615537167E-002,8.551179617643356E-002,-1.001569151878357E+000,1.221283748745918E-001,1.559250615537167E-002,8.551179617643356E-002,-1.001569151878357E+000,1.221283748745918E-001,
1.074866666666667E+009,2.873899042606354E-002,8.373183757066727E-002,-9.926132559776306E-001,1.440101861953735E-001,2.873899042606354E-002,8.373183757066727E-002,-9.926132559776306E-001,1.440101861953735E-001,
1.083233333333334E+009,3.805712983012199E-002,7.579876482486725E-002,-9.799680709838867E-001,1.639986187219620E-001,3.805712983012199E-002,7.579876482486725E-002,-9.799680709838867E-001,1.639986187219620E-001,
1.091600000000000E+009,4.401291906833649E-002,6.547209620475769E-002,-9.604009389877319E-001,1.837458014488220E-001,4.401291906833649E-002,6.547209620475769E-002,-9.604009389877319E-001,1.837458014488220E-001,
1.099966666666667E+009,4.254510626196861E-002,5.184052512049675E-002,-9.540812373161316E-001,2.221831679344177E-001,4.254510626196861E-002,5.184052512049675E-002,-9.540812373161316E-001,2.221831679344177E-001,
1.108333333333334E+009,3.444420546293259E-002,4.379913583397865E-002,-9.566414952278137E-001,2.315154820680618E-001,3.444420546293259E-002,4.379913583397865E-002,-9.566414952278137E-001,2.315154820680618E-001,
1.116700000000000E+009,2.393001690506935E-002,4.048772528767586E-002,-9.492269754409790E-001,2.666555047035217E-001,2.393001690506935E-002,4.048772528767586E-002,-9.492269754409790E-001,2.666555047035217E-001,
1.125066666666667E+009,1.239118538796902E-002,4.513052850961685E-002,-9.480891823768616E-001,2.816207706928253E-001,1.239118538796902E-002,4.513052850961685E-002,-9.480891823768616E-001,2.816207706928253E-001,
1.133433333333334E+009,5.119800567626953E-003,5.513666570186615E-002,-9.440422654151917E-001,3.254159986972809E-001,5.119800567626953E-003,5.513666570186615E-002,-9.440422654151917E-001,3.254159986972809E-001,
1.141800000000000E+009,4.417842254042625E-003,6.928505003452301E-002,-9.187683463096619E-001,3.422314524650574E-001,4.417842254042625E-003,6.928505003452301E-002,-9.187683463096619E-001,3.422314524650574E-001,
1.150166666666667E+009,1.358904130756855E-002,8.308316767215729E-002,-9.141509532928467E-001,3.403259515762329E-001,1.358904130756855E-002,8.308316767215729E-002,-9.141509532928467E-001,3.403259515762329E-001,
1.158533333333334E+009,3.001062758266926E-002,9.068410843610764E-002,-9.019474983215332E-001,3.808811008930206E-001,3.001062758266926E-002,9.068410843610764E-002,-9.019474983215332E-001,3.808811008930206E-001,
1.166900000000000E+009,4.908578842878342E-002,9.067526459693909E-002,-8.891981840133667E-001,4.001865684986115E-001,4.908578842878342E-002,9.067526459693909E-002,-8.891981840133667E-001,4.001865684986115E-001,
1.175266666666667E+009,6.529100984334946E-002,8.013621717691422E-002,-8.843255639076233E-001,4.302918016910553E-001,6.529100984334946E-002,8.013621717691422E-002,-8.843255639076233E-001,4.302918016910553E-001,
1.183633333333334E+009,7.712750136852264E-002,6.537429243326187E-002,-8.830050826072693E-001,4.437266886234283E-001,7.712750136852264E-002,6.537429243326187E-002,-8.830050826072693E-001,4.437266886234283E-001,
1.192000000000000E+009,7.687717676162720E-002,4.664644226431847E-002,-8.701397776603699E-001,4.675401151180267E-001,7.687717676162720E-002,4.664644226431847E-002,-8.701397776603699E-001,4.675401151180267E-001,
1.200366666666667E+009,6.732192635536194E-002,3.024959377944470E-002,-8.555581569671631E-001,4.890699088573456E-001,6.732192635536194E-002,3.024959377944470E-002,-8.555581569671631E-001,4.890699088573456E-001,
1.208733333333334E+009,5.200257152318955E-002,2.150643616914749E-002,-8.455957770347595E-001,5.320523977279663E-001,5.200257152318955E-002,2.150643616914749E-002,-8.455957770347595E-001,5.320523977279663E-001,
1.217100000000000E+009,3.603924810886383E-002,2.282509952783585E-002,-8.468251228332520E-001,5.462965369224548E-001,3.603924810886383E-002,2.282509952783585E-002,-8.468251228332520E-001,5.462965369224548E-001,
1.225466666666667E+009,2.352539263665676E-002,3.394241258502007E-002,-8.116847276687622E-001,5.659821629524231E-001,2.352539263665676E-002,3.394241258502007E-002,-8.116847276687622E-001,5.659821629524231E-001,
1.233833333333334E+009,1.975145749747753E-002,5.038098618388176E-002,-8.070090413093567E-001,5.753508806228638E-001,1.975145749747753E-002,5.038098618388176E-002,-8.070090413093567E-001,5.753508806228638E-001,
1.242200000000000E+009,2.803438901901245E-002,6.558294594287872E-002,-7.801723480224609E-001,6.132475733757019E-001,2.803438901901245E-002,6.558294594287872E-002,-7.801723480224609E-001,6.132475733757019E-001,
1.250566666666667E+009,4.202240332961083E-002,7.549349218606949E-002,-7.578139901161194E-001,6.138913035392761E-001,4.202240332961083E-002,7.549349218606949E-002,-7.578139901161194E-001,6.138913035392761E-001,
1.258933333333334E+009,6.286080926656723E-002,7.564958184957504E-002,-7.534848451614380E-001,6.378474235534668E-001,6.286080926656723E-002,7.564958184957504E-002,-7.534848451614380E-001,6.378474235534668E-001,
1.267300000000000E+009,8.274175226688385E-002,6.485951691865921E-002,-7.347572445869446E-001,6.514340043067932E-001,8.274175226688385E-002,6.485951691865921E-002,-7.347572445869446E-001,6.514340043067932E-001,
1.275666666666667E+009,9.227642416954041E-002,4.734109714627266E-002,-7.224967479705811E-001,6.612544655799866E-001,9.227642416954041E-002,4.734109714627266E-002,-7.224967479705811E-001,6.612544655799866E-001,
1.284033333333334E+009,9.417495131492615E-002,2.601231634616852E-002,-7.053503990173340E-001,7.023518681526184E-001,9.417495131492615E-002,2.601231634616852E-002,-7.053503990173340E-001,7.023518681526184E-001,
1.292400000000000E+009,8.378168940544128E-002,7.761346641927958E-003,-6.939990520477295E-001,7.053020000457764E-001,8.378168940544128E-002,7.761346641927958E-003,-6.939990520477295E-001,7.053020000457764E-001,
1.300766666666667E+009,6.420196592807770E-002,-9.010924841277301E-004,-6.709125041961670E-001,7.303995490074158E-001,6.420196592807770E-002,-9.010924841277301E-004,-6.709125041961670E-001,7.303995490074158E-001,
1.309133333333334E+009,4.361150786280632E-002,8.224544581025839E-004,-6.463267207145691E-001,7.436469197273254E-001,4.361150786280632E-002,8.224544581025839E-004,-6.463267207145691E-001,7.436469197273254E-001,
1.317500000000000E+009,2.948051504790783E-002,1.282718963921070E-002,-6.300050020217896E-001,7.764731049537659E-001,2.948051504790783E-002,1.282718963921070E-002,-6.300050020217896E-001,7.764731049537659E-001,
1.325866666666667E+009,2.467711828649044E-002,3.027035109698772E-002,-6.121914982795715E-001,7.896066904067993E-001,2.467711828649044E-002,3.027035109698772E-002,-6.121914982795715E-001,7.896066904067993E-001,
1.334233333333334E+009,3.312411159276962E-002,4.779599979519844E-002,-5.941083431243897E-001,7.950538396835327E-001,3.312411159276962E-002,4.779599979519844E-002,-5.941083431243897E-001,7.950538396835327E-001,
1.342600000000000E+009,4.981498047709465E-002,5.664877220988274E-002,-5.757051706314087E-001,8.102022409439087E-001,4.981498047709465E-002,5.664877220988274E-002,-5.757051706314087E-001,8.102022409439087E-001,
1.350966666666667E+009,7.049912959337235E-002,5.400032177567482E-002,-5.498328208923340E-001,8.242545127868652E-001,7.049912959337235E-002,5.400032177567482E-002,-5.498328208923340E-001,8.242545127868652E-001,
1.359333333333334E+009,8.630540966987610E-002,4.023460298776627E-002,-5.379613041877747E-001,8.242960572242737E-001,8.630540966987610E-002,4.023460298776627E-002,-5.379613041877747E-001,8.242960572242737E-001,
1.367700000000000E+009,9.270149469375610E-002,1.997371949255467E-002,-5.031065940856934E-001,8.443418145179749E-001,9.270149469375610E-002,1.997371949255467E-002,-5.031065940856934E-001,8.443418145179749E-001,
1.376066666666667E+009,8.911895006895065E-002,-2.010446973145008E-003,-4.878199696540833E-001,8.522470593452454E-001,8.911895006895065E-002,-2.010446973145008E-003,-4.878199696540833E-001,8.522470593452454E-001,
1.384433333333334E+009,7.206324487924576E-002,-1.723028719425201E-002,-4.729732573032379E-001,8.823986649513245E-001,7.206324487924576E-002,-1.723028719425201E-002,-4.729732573032379E-001,8.823986649513245E-001,
1.392800000000000E+009,5.153857544064522E-002,-1.937305927276611E-002,-4.493293464183807E-001,8.933951258659363E-001,5.153857544064522E-002,-1.937305927276611E-002,-4.493293464183807E-001,8.933951258659363E-001,
1.401166666666667E+009,3.038395941257477E-002,-1.135143917053938E-002,-4.243137836456299E-001,8.998448848724365E-001,3.038395941257477E-002,-1.135143917053938E-002,-4.243137836456299E-001,8.998448848724365E-001,
1.409533333333334E+009,1.717052608728409E-002,5.688452161848545E-003,-3.927608430385590E-001,9.134185314178467E-001,1.717052608728409E-002,5.688452161848545E-003,-3.927608430385590E-001,9.134185314178467E-001,
1.417900000000000E+009,1.804582774639130E-002,2.941145747900009E-002,-3.746975064277649E-001,9.102416634559631E-001,1.804582774639130E-002,2.941145747900009E-002,-3.746975064277649E-001,9.102416634559631E-001,
1.426266666666667E+009,2.872908860445023E-002,4.650023207068443E-002,-3.364949524402618E-001,9.349571466445923E-001,2.872908860445023E-002,4.650023207068443E-002,-3.364949524402618E-001,9.349571466445923E-001,
1.434633333333334E+009,5.012467876076698E-002,5.505451187491417E-002,-3.283191919326782E-001,9.307934641838074E-001,5.012467876076698E-002,5.505451187491417E-002,-3.283191919326782E-001,9.307934641838074E-001,
1.443000000000000E+009,7.086219638586044E-002,5.165866017341614E-002,-3.023523688316345E-001,9.370777010917664E-001,7.086219638586044E-002,5.165866017341614E-002,-3.023523688316345E-001,9.370777010917664E-001,
1.451366666666667E+009,8.820240199565888E-002,3.589860349893570E-002,-2.785996794700623E-001,9.344359040260315E-001,8.820240199565888E-002,3.589860349893570E-002,-2.785996794700623E-001,9.344359040260315E-001,
1.459733333333334E+009,9.537663310766220E-002,1.491867750883102E-002,-2.523469626903534E-001,9.661504626274109E-001,9.537663310766220E-002,1.491867750883102E-002,-2.523469626903534E-001,9.661504626274109E-001,
