% Version 1.00
%
%freq[Hz],re:Trc1_S11,im:Trc1_S11,re:Trc2_S21,im:Trc2_S21,re:Trc3_S11,im:Trc3_S11,re:Trc4_S21,im:Trc4_S21,
6.900000000000000E+008,-4.993942007422447E-002,3.858498856425285E-002,-5.028041601181030E-001,-8.488820195198059E-001,-4.993942007422447E-002,3.858498856425285E-002,-5.028041601181030E-001,-8.488820195198059E-001,
6.983666666666666E+008,-4.185663536190987E-002,3.904910385608673E-002,-5.282356142997742E-001,-8.379607200622559E-001,-4.185663536190987E-002,3.904910385608673E-002,-5.282356142997742E-001,-8.379607200622559E-001,
7.067333333333334E+008,-3.569798171520233E-002,3.471482545137405E-002,-5.510160923004150E-001,-8.123203516006470E-001,-3.569798171520233E-002,3.471482545137405E-002,-5.510160923004150E-001,-8.123203516006470E-001,
7.151000000000000E+008,-3.483431786298752E-002,2.740151062607765E-002,-5.858461260795593E-001,-8.103386163711548E-001,-3.483431786298752E-002,2.740151062607765E-002,-5.858461260795593E-001,-8.103386163711548E-001,
7.234666666666666E+008,-3.623487427830696E-002,2.253575250506401E-002,-5.991253256797791E-001,-7.946520447731018E-001,-3.623487427830696E-002,2.253575250506401E-002,-5.991253256797791E-001,-7.946520447731018E-001,
7.318333333333334E+008,-4.311235249042511E-002,2.052444033324719E-002,-6.166152954101563E-001,-7.777191400527954E-001,-4.311235249042511E-002,2.052444033324719E-002,-6.166152954101563E-001,-7.777191400527954E-001,
7.402000000000000E+008,-4.897563904523850E-002,2.275293879210949E-002,-6.272072196006775E-001,-7.522872090339661E-001,-4.897563904523850E-002,2.275293879210949E-002,-6.272072196006775E-001,-7.522872090339661E-001,
7.485666666666666E+008,-5.422809347510338E-002,2.994757331907749E-002,-6.567334532737732E-001,-7.389604449272156E-001,-5.422809347510338E-002,2.994757331907749E-002,-6.567334532737732E-001,-7.389604449272156E-001,
7.569333333333334E+008,-5.831200629472733E-002,3.977888822555542E-002,-6.753625869750977E-001,-7.257669568061829E-001,-5.831200629472733E-002,3.977888822555542E-002,-6.753625869750977E-001,-7.257669568061829E-001,
7.653000000000000E+008,-5.334953963756561E-002,4.861577600240707E-002,-6.828030943870544E-001,-7.066937685012817E-001,-5.334953963756561E-002,4.861577600240707E-002,-6.828030943870544E-001,-7.066937685012817E-001,
7.736666666666666E+008,-4.759349301457405E-002,5.517856776714325E-002,-6.959055066108704E-001,-7.028598785400391E-001,-4.759349301457405E-002,5.517856776714325E-002,-6.959055066108704E-001,-7.028598785400391E-001,
7.820333333333334E+008,-3.936352953314781E-002,5.912690237164497E-002,-7.291151881217957E-001,-6.745282411575317E-001,-3.936352953314781E-002,5.912690237164497E-002,-7.291151881217957E-001,-6.745282411575317E-001,
7.904000000000000E+008,-2.966556698083878E-002,5.794295668601990E-002,-7.381363511085510E-001,-6.561317443847656E-001,-2.966556698083878E-002,5.794295668601990E-002,-7.381363511085510E-001,-6.561317443847656E-001,
7.987666666666666E+008,-2.525695227086544E-002,5.269749090075493E-002,-7.435867190361023E-001,-6.399642825126648E-001,-2.525695227086544E-002,5.269749090075493E-002,-7.435867190361023E-001,-6.399642825126648E-001,
8.071333333333334E+008,-2.303305640816689E-002,4.624653235077858E-002,-7.697257399559021E-001,-6.080783009529114E-001,-2.303305640816689E-002,4.624653235077858E-002,-7.697257399559021E-001,-6.080783009529114E-001,
8.155000000000000E+008,-2.536340989172459E-002,3.926347196102142E-002,-7.963116765022278E-001,-5.969032049179077E-001,-2.536340989172459E-002,3.926347196102142E-002,-7.963116765022278E-001,-5.969032049179077E-001,
8.238666666666666E+008,-3.144146502017975E-002,3.747911751270294E-002,-8.025758862495422E-001,-5.734970569610596E-001,-3.144146502017975E-002,3.747911751270294E-002,-8.025758862495422E-001,-5.734970569610596E-001,
8.322333333333334E+008,-3.645544126629829E-002,3.916965797543526E-002,-8.119316697120667E-001,-5.551673769950867E-001,-3.645544126629829E-002,3.916965797543526E-002,-8.119316697120667E-001,-5.551673769950867E-001,
8.406000000000000E+008,-4.060697928071022E-002,4.287746176123619E-002,-8.236966729164124E-001,-5.325189828872681E-001,-4.060697928071022E-002,4.287746176123619E-002,-8.236966729164124E-001,-5.325189828872681E-001,
8.489666666666668E+008,-4.191473498940468E-002,5.416306480765343E-002,-8.357411026954651E-001,-5.036080479621887E-001,-4.191473498940468E-002,5.416306480765343E-002,-8.357411026954651E-001,-5.036080479621887E-001,
8.573333333333334E+008,-3.999935463070869E-002,6.221356987953186E-002,-8.375421166419983E-001,-4.732013940811157E-001,-3.999935463070869E-002,6.221356987953186E-002,-8.375421166419983E-001,-4.732013940811157E-001,
8.657000000000000E+008,-3.504224121570587E-002,7.003088295459747E-002,-8.652967810630798E-001,-4.772360920906067E-001,-3.504224121570587E-002,7.003088295459747E-002,-8.652967810630798E-001,-4.772360920906067E-001,
8.740666666666668E+008,-2.626161091029644E-002,7.526119798421860E-002,-8.712917566299439E-001,-4.525296092033386E-001,-2.626161091029644E-002,7.526119798421860E-002,-8.712917566299439E-001,-4.525296092033386E-001,
8.824333333333334E+008,-1.845307834446430E-002,7.668329775333405E-002,-8.894768357276917E-001,-4.282151162624359E-001,-1.845307834446430E-002,7.668329775333405E-002,-8.894768357276917E-001,-4.282151162624359E-001,
8.908000000000000E+008,-1.050149928778410E-002,7.306239008903503E-002,-9.031354784965515E-001,-4.106200337409973E-001,-1.050149928778410E-002,7.306239008903503E-002,-9.031354784965515E-001,-4.106200337409973E-001,
8.991666666666668E+008,-4.951978102326393E-003,6.684266775846481E-002,-9.029455780982971E-001,-3.835488557815552E-001,-4.951978102326393E-003,6.684266775846481E-002,-9.029455780982971E-001,-3.835488557815552E-001,
9.075333333333334E+008,-4.203671589493752E-003,5.911146104335785E-002,-9.169326424598694E-001,-3.582524359226227E-001,-4.203671589493752E-003,5.911146104335785E-002,-9.169326424598694E-001,-3.582524359226227E-001,
9.159000000000000E+008,-6.526399869471788E-003,5.316396057605743E-002,-9.380722641944885E-001,-3.332276344299316E-001,-6.526399869471788E-003,5.316396057605743E-002,-9.380722641944885E-001,-3.332276344299316E-001,
9.242666666666668E+008,-1.256556902080774E-002,5.328462272882462E-002,-9.295458793640137E-001,-3.114936351776123E-001,-1.256556902080774E-002,5.328462272882462E-002,-9.295458793640137E-001,-3.114936351776123E-001,
9.326333333333334E+008,-1.690041273832321E-002,5.553338304162026E-002,-9.451932907104492E-001,-2.968515455722809E-001,-1.690041273832321E-002,5.553338304162026E-002,-9.451932907104492E-001,-2.968515455722809E-001,
9.410000000000000E+008,-2.043694257736206E-002,6.000669300556183E-002,-9.552252888679504E-001,-2.612204551696777E-001,-2.043694257736206E-002,6.000669300556183E-002,-9.552252888679504E-001,-2.612204551696777E-001,
9.493666666666668E+008,-2.156687341630459E-002,6.956343352794647E-002,-9.600403904914856E-001,-2.304105311632156E-001,-2.156687341630459E-002,6.956343352794647E-002,-9.600403904914856E-001,-2.304105311632156E-001,
9.577333333333334E+008,-1.785134151577950E-002,7.968170195817947E-002,-9.657451510429382E-001,-2.170494049787521E-001,-1.785134151577950E-002,7.968170195817947E-002,-9.657451510429382E-001,-2.170494049787521E-001,
9.661000000000000E+008,-9.288001805543900E-003,8.661798387765884E-002,-9.666371941566467E-001,-1.749242395162582E-001,-9.288001805543900E-003,8.661798387765884E-002,-9.666371941566467E-001,-1.749242395162582E-001,
9.744666666666668E+008,1.205298583954573E-003,8.694819360971451E-002,-9.644754528999329E-001,-1.653087437152863E-001,1.205298583954573E-003,8.694819360971451E-002,-9.644754528999329E-001,-1.653087437152863E-001,
9.828333333333334E+008,1.015422120690346E-002,8.802882581949234E-002,-9.798938632011414E-001,-1.452713906764984E-001,1.015422120690346E-002,8.802882581949234E-002,-9.798938632011414E-001,-1.452713906764984E-001,
9.912000000000000E+008,2.050992473959923E-002,8.136907964944840E-002,-9.774267077445984E-001,-1.231572702527046E-001,2.050992473959923E-002,8.136907964944840E-002,-9.774267077445984E-001,-1.231572702527046E-001,
9.995666666666668E+008,2.429026551544666E-002,7.328920811414719E-002,-9.895859360694885E-001,-8.618732541799545E-002,2.429026551544666E-002,7.328920811414719E-002,-9.895859360694885E-001,-8.618732541799545E-002,
1.007933333333333E+009,2.823507599532604E-002,6.332590430974960E-002,-1.003049373626709E+000,-6.874927133321762E-002,2.823507599532604E-002,6.332590430974960E-002,-1.003049373626709E+000,-6.874927133321762E-002,
1.016300000000000E+009,2.271465212106705E-002,5.695080757141113E-002,-9.892007708549500E-001,-4.257896542549133E-002,2.271465212106705E-002,5.695080757141113E-002,-9.892007708549500E-001,-4.257896542549133E-002,
1.024666666666667E+009,1.571700163185597E-002,5.296679958701134E-002,-9.849271178245544E-001,-1.645732484757900E-002,1.571700163185597E-002,5.296679958701134E-002,-9.849271178245544E-001,-1.645732484757900E-002,
1.033033333333333E+009,1.151227485388517E-002,5.756732076406479E-002,-9.915943741798401E-001,9.892083704471588E-003,1.151227485388517E-002,5.756732076406479E-002,-9.915943741798401E-001,9.892083704471588E-003,
1.041400000000000E+009,5.567292217165232E-003,6.264539062976837E-002,-9.913579225540161E-001,3.098021633923054E-002,5.567292217165232E-003,6.264539062976837E-002,-9.913579225540161E-001,3.098021633923054E-002,
1.049766666666667E+009,9.218976832926273E-003,7.223626226186752E-002,-9.765425324440002E-001,6.673283874988556E-002,9.218976832926273E-003,7.223626226186752E-002,-9.765425324440002E-001,6.673283874988556E-002,
1.058133333333333E+009,1.374112349003553E-002,8.168970793485642E-002,-9.783325791358948E-001,8.867298811674118E-002,1.374112349003553E-002,8.168970793485642E-002,-9.783325791358948E-001,8.867298811674118E-002,
1.066500000000000E+009,2.488403394818306E-002,8.614355325698853E-002,-9.925165176391602E-001,1.230515539646149E-001,2.488403394818306E-002,8.614355325698853E-002,-9.925165176391602E-001,1.230515539646149E-001,
1.074866666666667E+009,3.830323368310928E-002,8.501832187175751E-002,-9.863710403442383E-001,1.432875394821167E-001,3.830323368310928E-002,8.501832187175751E-002,-9.863710403442383E-001,1.432875394821167E-001,
1.083233333333334E+009,4.666791483759880E-002,7.702202349901199E-002,-9.695467352867127E-001,1.638404726982117E-001,4.666791483759880E-002,7.702202349901199E-002,-9.695467352867127E-001,1.638404726982117E-001,
1.091600000000000E+009,5.310127139091492E-002,6.624181568622589E-002,-9.521209001541138E-001,1.833039969205856E-001,5.310127139091492E-002,6.624181568622589E-002,-9.521209001541138E-001,1.833039969205856E-001,
1.099966666666667E+009,5.220943689346314E-002,5.235881358385086E-002,-9.471876621246338E-001,2.213519513607025E-001,5.220943689346314E-002,5.235881358385086E-002,-9.471876621246338E-001,2.213519513607025E-001,
1.108333333333334E+009,4.451352357864380E-002,4.385510087013245E-002,-9.471085071563721E-001,2.293899208307266E-001,4.451352357864380E-002,4.385510087013245E-002,-9.471085071563721E-001,2.293899208307266E-001,
1.116700000000000E+009,3.476296737790108E-002,3.994786739349365E-002,-9.398980736732483E-001,2.630320191383362E-001,3.476296737790108E-002,3.994786739349365E-002,-9.398980736732483E-001,2.630320191383362E-001,
1.125066666666667E+009,2.456239610910416E-002,4.389825090765953E-002,-9.402785301208496E-001,2.796553969383240E-001,2.456239610910416E-002,4.389825090765953E-002,-9.402785301208496E-001,2.796553969383240E-001,
1.133433333333334E+009,1.764791458845139E-002,5.306307971477509E-002,-9.372991919517517E-001,3.244307637214661E-001,1.764791458845139E-002,5.306307971477509E-002,-9.372991919517517E-001,3.244307637214661E-001,
1.141800000000000E+009,1.721760444343090E-002,6.612873077392578E-002,-9.141903519630432E-001,3.386860787868500E-001,1.721760444343090E-002,6.612873077392578E-002,-9.141903519630432E-001,3.386860787868500E-001,
1.150166666666667E+009,2.672372385859489E-002,8.022656291723251E-002,-9.052257537841797E-001,3.396285772323608E-001,2.672372385859489E-002,8.022656291723251E-002,-9.052257537841797E-001,3.396285772323608E-001,
1.158533333333334E+009,4.289336130023003E-002,8.718093484640122E-002,-8.978826999664307E-001,3.798594772815704E-001,4.289336130023003E-002,8.718093484640122E-002,-8.978826999664307E-001,3.798594772815704E-001,
1.166900000000000E+009,6.202156841754913E-002,8.713616430759430E-002,-8.810799121856690E-001,3.998292684555054E-001,6.202156841754913E-002,8.713616430759430E-002,-8.810799121856690E-001,3.998292684555054E-001,
1.175266666666667E+009,7.740467786788940E-002,7.648666948080063E-002,-8.752411603927612E-001,4.289540946483612E-001,7.740467786788940E-002,7.648666948080063E-002,-8.752411603927612E-001,4.289540946483612E-001,
1.183633333333334E+009,8.888027071952820E-002,6.180611252784729E-002,-8.735694289207459E-001,4.407468736171722E-001,8.888027071952820E-002,6.180611252784729E-002,-8.735694289207459E-001,4.407468736171722E-001,
1.192000000000000E+009,8.847726136445999E-002,4.303291067481041E-002,-8.605639338493347E-001,4.631794691085815E-001,8.847726136445999E-002,4.303291067481041E-002,-8.605639338493347E-001,4.631794691085815E-001,
1.200366666666667E+009,7.895818352699280E-002,2.628513984382153E-002,-8.478857874870300E-001,4.842693805694580E-001,7.895818352699280E-002,2.628513984382153E-002,-8.478857874870300E-001,4.842693805694580E-001,
1.208733333333334E+009,6.441492587327957E-002,1.694066263735294E-002,-8.407005667686462E-001,5.262987613677979E-001,6.441492587327957E-002,1.694066263735294E-002,-8.407005667686462E-001,5.262987613677979E-001,
1.217100000000000E+009,4.904600605368614E-002,1.733526214957237E-002,-8.367454409599304E-001,5.361444354057312E-001,4.904600605368614E-002,1.733526214957237E-002,-8.367454409599304E-001,5.361444354057312E-001,
1.225466666666667E+009,3.758494183421135E-002,2.748231776058674E-002,-8.042505383491516E-001,5.605422854423523E-001,3.758494183421135E-002,2.748231776058674E-002,-8.042505383491516E-001,5.605422854423523E-001,
1.233833333333334E+009,3.397187218070030E-002,4.330985620617867E-002,-7.992587089538574E-001,5.719351768493652E-001,3.397187218070030E-002,4.330985620617867E-002,-7.992587089538574E-001,5.719351768493652E-001,
1.242200000000000E+009,4.313482716679573E-002,5.701031535863876E-002,-7.735822200775147E-001,6.050361990928650E-001,4.313482716679573E-002,5.701031535863876E-002,-7.735822200775147E-001,6.050361990928650E-001,
1.250566666666667E+009,5.695552751421928E-002,6.666830927133560E-002,-7.517481446266174E-001,6.103132367134094E-001,5.695552751421928E-002,6.666830927133560E-002,-7.517481446266174E-001,6.103132367134094E-001,
1.258933333333334E+009,7.766473293304443E-002,6.661701202392578E-002,-7.462260127067566E-001,6.322341561317444E-001,7.766473293304443E-002,6.661701202392578E-002,-7.462260127067566E-001,6.322341561317444E-001,
1.267300000000000E+009,9.727939218282700E-002,5.570417642593384E-002,-7.270882129669190E-001,6.461996436119080E-001,9.727939218282700E-002,5.570417642593384E-002,-7.270882129669190E-001,6.461996436119080E-001,
1.275666666666667E+009,1.061081513762474E-001,3.772578760981560E-002,-7.146776914596558E-001,6.540161967277527E-001,1.061081513762474E-001,3.772578760981560E-002,-7.146776914596558E-001,6.540161967277527E-001,
1.284033333333334E+009,1.077491864562035E-001,1.652535051107407E-002,-6.986092925071716E-001,6.957765817642212E-001,1.077491864562035E-001,1.652535051107407E-002,-6.986092925071716E-001,6.957765817642212E-001,
1.292400000000000E+009,9.704338014125824E-002,-2.380339195951819E-003,-6.863870620727539E-001,6.993626356124878E-001,9.704338014125824E-002,-2.380339195951819E-003,-6.863870620727539E-001,6.993626356124878E-001,
1.300766666666667E+009,7.736711204051971E-002,-1.132482104003429E-002,-6.639411449432373E-001,7.231132388114929E-001,7.736711204051971E-002,-1.132482104003429E-002,-6.639411449432373E-001,7.231132388114929E-001,
1.309133333333334E+009,5.707857385277748E-002,-1.063832826912403E-002,-6.395217776298523E-001,7.372047305107117E-001,5.707857385277748E-002,-1.063832826912403E-002,-6.395217776298523E-001,7.372047305107117E-001,
1.317500000000000E+009,4.279493167996407E-002,4.747613274957985E-004,-6.264597773551941E-001,7.677030563354492E-001,4.279493167996407E-002,4.747613274957985E-004,-6.264597773551941E-001,7.677030563354492E-001,
1.325866666666667E+009,3.864192962646484E-002,1.646651700139046E-002,-6.068503856658936E-001,7.825143933296204E-001,3.864192962646484E-002,1.646651700139046E-002,-6.068503856658936E-001,7.825143933296204E-001,
1.334233333333334E+009,4.730782657861710E-002,3.310026973485947E-002,-5.882241725921631E-001,7.883147597312927E-001,4.730782657861710E-002,3.310026973485947E-002,-5.882241725921631E-001,7.883147597312927E-001,
1.342600000000000E+009,6.338842958211899E-002,4.132100567221642E-002,-5.705062747001648E-001,8.055310845375061E-001,6.338842958211899E-002,4.132100567221642E-002,-5.705062747001648E-001,8.055310845375061E-001,
1.350966666666667E+009,8.398829400539398E-002,3.796891123056412E-002,-5.441465377807617E-001,8.169499635696411E-001,8.398829400539398E-002,3.796891123056412E-002,-5.441465377807617E-001,8.169499635696411E-001,
1.359333333333334E+009,9.922104328870773E-002,2.423908188939095E-002,-5.309502482414246E-001,8.164627552032471E-001,9.922104328870773E-002,2.423908188939095E-002,-5.309502482414246E-001,8.164627552032471E-001,
1.367700000000000E+009,1.050886288285255E-001,4.586338996887207E-003,-4.973657429218292E-001,8.347488045692444E-001,1.050886288285255E-001,4.586338996887207E-003,-4.973657429218292E-001,8.347488045692444E-001,
1.376066666666667E+009,1.011197715997696E-001,-1.760593429207802E-002,-4.820944666862488E-001,8.438504338264465E-001,1.011197715997696E-001,-1.760593429207802E-002,-4.820944666862488E-001,8.438504338264465E-001,
1.384433333333334E+009,8.365780860185623E-002,-3.277778998017311E-002,-4.672203958034515E-001,8.741579651832581E-001,8.365780860185623E-002,-3.277778998017311E-002,-4.672203958034515E-001,8.741579651832581E-001,
1.392800000000000E+009,6.253524869680405E-002,-3.536350652575493E-002,-4.461191892623901E-001,8.822487592697144E-001,6.253524869680405E-002,-3.536350652575493E-002,-4.461191892623901E-001,8.822487592697144E-001,
1.401166666666667E+009,4.175624251365662E-002,-2.838254533708096E-002,-4.192827641963959E-001,8.897284865379334E-001,4.175624251365662E-002,-2.838254533708096E-002,-4.192827641963959E-001,8.897284865379334E-001,
1.409533333333334E+009,2.784245833754540E-002,-1.175754610449076E-002,-3.899301290512085E-001,9.041367769241333E-001,2.784245833754540E-002,-1.175754610449076E-002,-3.899301290512085E-001,9.041367769241333E-001,
1.417900000000000E+009,2.875931188464165E-002,1.047471538186073E-002,-3.705301284790039E-001,9.003044962882996E-001,2.875931188464165E-002,1.047471538186073E-002,-3.705301284790039E-001,9.003044962882996E-001,
1.426266666666667E+009,3.969002142548561E-002,2.634777128696442E-002,-3.336227238178253E-001,9.264181256294251E-001,3.969002142548561E-002,2.634777128696442E-002,-3.336227238178253E-001,9.264181256294251E-001,
1.434633333333334E+009,6.043438985943794E-002,3.348180651664734E-002,-3.237241208553314E-001,9.204116463661194E-001,6.043438985943794E-002,3.348180651664734E-002,-3.237241208553314E-001,9.204116463661194E-001,
1.443000000000000E+009,8.124387264251709E-002,2.965004369616509E-002,-2.991013526916504E-001,9.276357293128967E-001,8.124387264251709E-002,2.965004369616509E-002,-2.991013526916504E-001,9.276357293128967E-001,
1.451366666666667E+009,9.746550023555756E-002,1.338227838277817E-002,-2.731707096099854E-001,9.275701045989990E-001,9.746550023555756E-002,1.338227838277817E-002,-2.731707096099854E-001,9.275701045989990E-001,
1.459733333333334E+009,1.041039377450943E-001,-7.221513427793980E-003,-2.472998499870300E-001,9.538632035255432E-001,1.041039377450943E-001,-7.221513427793980E-003,-2.472998499870300E-001,9.538632035255432E-001,
