% Version 1.00
%
%freq[Hz],re:Trc1_S11,im:Trc1_S11,re:Trc2_S21,im:Trc2_S21,re:Trc3_S11,im:Trc3_S11,re:Trc4_S21,im:Trc4_S21,
6.900000000000000E+008,-4.849196970462799E-002,4.007313027977943E-002,-5.069040060043335E-001,-8.496333956718445E-001,-4.849196970462799E-002,4.007313027977943E-002,-5.069040060043335E-001,-8.496333956718445E-001,
6.983666666666666E+008,-4.038760438561440E-002,4.042702168226242E-002,-5.320791006088257E-001,-8.388680219650269E-001,-4.038760438561440E-002,4.042702168226242E-002,-5.320791006088257E-001,-8.388680219650269E-001,
7.067333333333334E+008,-3.454481810331345E-002,3.595990687608719E-002,-5.548117160797119E-001,-8.132143020629883E-001,-3.454481810331345E-002,3.595990687608719E-002,-5.548117160797119E-001,-8.132143020629883E-001,
7.151000000000000E+008,-3.423706442117691E-002,2.832824923098087E-002,-5.897952318191528E-001,-8.108878135681152E-001,-3.423706442117691E-002,2.832824923098087E-002,-5.897952318191528E-001,-8.108878135681152E-001,
7.234666666666666E+008,-3.630709275603294E-002,2.316371165215969E-002,-6.027300953865051E-001,-7.949688434600830E-001,-3.630709275603294E-002,2.316371165215969E-002,-6.027300953865051E-001,-7.949688434600830E-001,
7.318333333333334E+008,-4.372743144631386E-002,2.085221186280251E-002,-6.207967996597290E-001,-7.778093814849854E-001,-4.372743144631386E-002,2.085221186280251E-002,-6.207967996597290E-001,-7.778093814849854E-001,
7.402000000000000E+008,-4.996477439999580E-002,2.287213318049908E-002,-6.314340829849243E-001,-7.523949146270752E-001,-4.996477439999580E-002,2.287213318049908E-002,-6.314340829849243E-001,-7.523949146270752E-001,
7.485666666666666E+008,-5.525576695799828E-002,2.992647141218185E-002,-6.612072587013245E-001,-7.388803362846375E-001,-5.525576695799828E-002,2.992647141218185E-002,-6.612072587013245E-001,-7.388803362846375E-001,
7.569333333333334E+008,-5.894254148006439E-002,3.979588672518730E-002,-6.796165704727173E-001,-7.251977324485779E-001,-5.894254148006439E-002,3.979588672518730E-002,-6.796165704727173E-001,-7.251977324485779E-001,
7.653000000000000E+008,-5.326506122946739E-002,4.873553663492203E-002,-6.866918802261353E-001,-7.063546776771545E-001,-5.326506122946739E-002,4.873553663492203E-002,-6.866918802261353E-001,-7.063546776771545E-001,
7.736666666666666E+008,-4.674817621707916E-002,5.543565377593041E-002,-7.001391649246216E-001,-7.021815776824951E-001,-4.674817621707916E-002,5.543565377593041E-002,-7.001391649246216E-001,-7.021815776824951E-001,
7.820333333333334E+008,-3.781275451183319E-002,5.948588997125626E-002,-7.332497239112854E-001,-6.737931966781616E-001,-3.781275451183319E-002,5.948588997125626E-002,-7.332497239112854E-001,-6.737931966781616E-001,
7.904000000000000E+008,-2.775306627154350E-002,5.839965865015984E-002,-7.421014308929443E-001,-6.549504399299622E-001,-2.775306627154350E-002,5.839965865015984E-002,-7.421014308929443E-001,-6.549504399299622E-001,
7.987666666666666E+008,-2.340285666286945E-002,5.327050015330315E-002,-7.482293248176575E-001,-6.395450234413147E-001,-2.340285666286945E-002,5.327050015330315E-002,-7.482293248176575E-001,-6.395450234413147E-001,
8.071333333333334E+008,-2.155432477593422E-002,4.686184599995613E-002,-7.739713191986084E-001,-6.069788336753845E-001,-2.155432477593422E-002,4.686184599995613E-002,-7.739713191986084E-001,-6.069788336753845E-001,
8.155000000000000E+008,-2.460757642984390E-002,3.983072936534882E-002,-8.007042407989502E-001,-5.956678986549377E-001,-2.460757642984390E-002,3.983072936534882E-002,-8.007042407989502E-001,-5.956678986549377E-001,
8.238666666666666E+008,-3.138500452041626E-002,3.799781203269959E-002,-8.070515990257263E-001,-5.722371935844421E-001,-3.138500452041626E-002,3.799781203269959E-002,-8.070515990257263E-001,-5.722371935844421E-001,
8.322333333333334E+008,-3.705496713519096E-002,3.945207223296166E-002,-8.164569139480591E-001,-5.545550584793091E-001,-3.705496713519096E-002,3.945207223296166E-002,-8.164569139480591E-001,-5.545550584793091E-001,
8.406000000000000E+008,-4.175297915935516E-002,4.279933124780655E-002,-8.281775116920471E-001,-5.314763188362122E-001,-4.175297915935516E-002,4.279933124780655E-002,-8.281775116920471E-001,-5.314763188362122E-001,
8.489666666666668E+008,-4.323284327983856E-002,5.404963716864586E-002,-8.400545120239258E-001,-5.020784139633179E-001,-4.323284327983856E-002,5.404963716864586E-002,-8.400545120239258E-001,-5.020784139633179E-001,
8.573333333333334E+008,-4.095514491200447E-002,6.192000210285187E-002,-8.419950008392334E-001,-4.715029299259186E-001,-4.095514491200447E-002,6.192000210285187E-002,-8.419950008392334E-001,-4.715029299259186E-001,
8.657000000000000E+008,-3.541072458028793E-002,6.953867524862289E-002,-8.697513341903687E-001,-4.752668142318726E-001,-3.541072458028793E-002,6.953867524862289E-002,-8.697513341903687E-001,-4.752668142318726E-001,
8.740666666666668E+008,-2.605071663856506E-002,7.462316751480103E-002,-8.757994174957275E-001,-4.507963061332703E-001,-2.605071663856506E-002,7.462316751480103E-002,-8.757994174957275E-001,-4.507963061332703E-001,
8.824333333333334E+008,-1.761557161808014E-002,7.607148587703705E-002,-8.942064642906189E-001,-4.257813394069672E-001,-1.761557161808014E-002,7.607148587703705E-002,-8.942064642906189E-001,-4.257813394069672E-001,
8.908000000000000E+008,-9.329235181212425E-003,7.265448570251465E-002,-9.079679250717163E-001,-4.078700542449951E-001,-9.329235181212425E-003,7.265448570251465E-002,-9.079679250717163E-001,-4.078700542449951E-001,
8.991666666666668E+008,-3.735112259164453E-003,6.658066064119339E-002,-9.074341654777527E-001,-3.808216154575348E-001,-3.735112259164453E-003,6.658066064119339E-002,-9.074341654777527E-001,-3.808216154575348E-001,
9.075333333333334E+008,-3.294867696240544E-003,5.912116914987564E-002,-9.217191934585571E-001,-3.553009927272797E-001,-3.294867696240544E-003,5.912116914987564E-002,-9.217191934585571E-001,-3.553009927272797E-001,
9.159000000000000E+008,-6.203765049576759E-003,5.338376760482788E-002,-9.425432085990906E-001,-3.300327062606812E-001,-6.203765049576759E-003,5.338376760482788E-002,-9.425432085990906E-001,-3.300327062606812E-001,
9.242666666666668E+008,-1.293959747999907E-002,5.356629937887192E-002,-9.339575767517090E-001,-3.079727590084076E-001,-1.293959747999907E-002,5.356629937887192E-002,-9.339575767517090E-001,-3.079727590084076E-001,
9.326333333333334E+008,-1.800303533673286E-002,5.587328970432282E-002,-9.498004317283630E-001,-2.935812771320343E-001,-1.800303533673286E-002,5.587328970432282E-002,-9.498004317283630E-001,-2.935812771320343E-001,
9.410000000000000E+008,-2.194891683757305E-002,6.017819792032242E-002,-9.598659276962280E-001,-2.575648427009583E-001,-2.194891683757305E-002,6.017819792032242E-002,-9.598659276962280E-001,-2.575648427009583E-001,
9.493666666666668E+008,-2.323682978749275E-002,6.941375136375427E-002,-9.644044637680054E-001,-2.269748002290726E-001,-2.323682978749275E-002,6.941375136375427E-002,-9.644044637680054E-001,-2.269748002290726E-001,
9.577333333333334E+008,-1.930816657841206E-002,7.916486263275147E-002,-9.698600769042969E-001,-2.130423784255981E-001,-1.930816657841206E-002,7.916486263275147E-002,-9.698600769042969E-001,-2.130423784255981E-001,
9.661000000000000E+008,-1.029835827648640E-002,8.574231714010239E-002,-9.704388976097107E-001,-1.712233871221542E-001,-1.029835827648640E-002,8.574231714010239E-002,-9.704388976097107E-001,-1.712233871221542E-001,
9.744666666666668E+008,7.762874593026936E-004,8.573462069034576E-002,-9.680175185203552E-001,-1.612208336591721E-001,7.762874593026936E-004,8.573462069034576E-002,-9.680175185203552E-001,-1.612208336591721E-001,
9.828333333333334E+008,1.025448366999626E-002,8.659965544939041E-002,-9.839072227478027E-001,-1.408571600914002E-001,1.025448366999626E-002,8.659965544939041E-002,-9.839072227478027E-001,-1.408571600914002E-001,
9.912000000000000E+008,2.087691612541676E-002,8.006939291954041E-002,-9.810274839401245E-001,-1.187897548079491E-001,2.087691612541676E-002,8.006939291954041E-002,-9.810274839401245E-001,-1.187897548079491E-001,
9.995666666666668E+008,2.464147098362446E-002,7.224373519420624E-002,-9.933650493621826E-001,-8.168534934520721E-002,2.464147098362446E-002,7.224373519420624E-002,-9.933650493621826E-001,-8.168534934520721E-002,
1.007933333333333E+009,2.810485661029816E-002,6.266043335199356E-002,-1.007138490676880E+000,-6.434351950883865E-002,2.810485661029816E-002,6.266043335199356E-002,-1.007138490676880E+000,-6.434351950883865E-002,
1.016300000000000E+009,2.188208140432835E-002,5.668006464838982E-002,-9.934597611427307E-001,-3.764006122946739E-002,2.188208140432835E-002,5.668006464838982E-002,-9.934597611427307E-001,-3.764006122946739E-002,
1.024666666666667E+009,1.398180145770311E-002,5.302800983190537E-002,-9.887917637825012E-001,-1.161525864154100E-002,1.398180145770311E-002,5.302800983190537E-002,-9.887917637825012E-001,-1.161525864154100E-002,
1.033033333333333E+009,8.901940658688545E-003,5.788906663656235E-002,-9.953844547271729E-001,1.535422354936600E-002,8.901940658688545E-003,5.788906663656235E-002,-9.953844547271729E-001,1.535422354936600E-002,
1.041400000000000E+009,2.340037142857909E-003,6.297654658555985E-002,-9.945756793022156E-001,3.608841821551323E-002,2.340037142857909E-003,6.297654658555985E-002,-9.945756793022156E-001,3.608841821551323E-002,
1.049766666666667E+009,5.910859908908606E-003,7.244540750980377E-002,-9.798008799552918E-001,7.233715802431107E-002,5.910859908908606E-003,7.244540750980377E-002,-9.798008799552918E-001,7.233715802431107E-002,
1.058133333333333E+009,1.064137089997530E-002,8.151271194219589E-002,-9.814667105674744E-001,9.440445899963379E-002,1.064137089997530E-002,8.151271194219589E-002,-9.814667105674744E-001,9.440445899963379E-002,
1.066500000000000E+009,2.245663292706013E-002,8.535506576299667E-002,-9.960669875144959E-001,1.285225003957748E-001,2.245663292706013E-002,8.535506576299667E-002,-9.960669875144959E-001,1.285225003957748E-001,
1.074866666666667E+009,3.648497164249420E-002,8.347146958112717E-002,-9.889239072799683E-001,1.493060290813446E-001,3.648497164249420E-002,8.347146958112717E-002,-9.889239072799683E-001,1.493060290813446E-001,
1.083233333333334E+009,4.549993947148323E-002,7.495447248220444E-002,-9.725351929664612E-001,1.697554439306259E-001,4.549993947148323E-002,7.495447248220444E-002,-9.725351929664612E-001,1.697554439306259E-001,
1.091600000000000E+009,5.220260843634605E-002,6.406792998313904E-002,-9.550428390502930E-001,1.888055652379990E-001,5.220260843634605E-002,6.406792998313904E-002,-9.550428390502930E-001,1.888055652379990E-001,
1.099966666666667E+009,5.123483389616013E-002,5.050953477621079E-002,-9.499302506446838E-001,2.272765785455704E-001,5.123483389616013E-002,5.050953477621079E-002,-9.499302506446838E-001,2.272765785455704E-001,
1.108333333333334E+009,4.298764839768410E-002,4.269269481301308E-002,-9.502563476562500E-001,2.357504516839981E-001,4.298764839768410E-002,4.269269481301308E-002,-9.502563476562500E-001,2.357504516839981E-001,
1.116700000000000E+009,3.250682353973389E-002,3.979766368865967E-002,-9.424911737442017E-001,2.692747712135315E-001,3.250682353973389E-002,3.979766368865967E-002,-9.424911737442017E-001,2.692747712135315E-001,
1.125066666666667E+009,2.139632590115070E-002,4.480553045868874E-002,-9.427552819252014E-001,2.860310971736908E-001,2.139632590115070E-002,4.480553045868874E-002,-9.427552819252014E-001,2.860310971736908E-001,
1.133433333333334E+009,1.378471311181784E-002,5.496679618954659E-002,-9.396349787712097E-001,3.312613368034363E-001,1.378471311181784E-002,5.496679618954659E-002,-9.396349787712097E-001,3.312613368034363E-001,
1.141800000000000E+009,1.294127944856882E-002,6.855534017086029E-002,-9.167219996452332E-001,3.455393910408020E-001,1.294127944856882E-002,6.855534017086029E-002,-9.167219996452332E-001,3.455393910408020E-001,
1.150166666666667E+009,2.234384790062904E-002,8.254528790712357E-002,-9.074590206146240E-001,3.460970520973206E-001,2.234384790062904E-002,8.254528790712357E-002,-9.074590206146240E-001,3.460970520973206E-001,
1.158533333333334E+009,3.879458084702492E-002,8.907499909400940E-002,-8.992956876754761E-001,3.860095739364624E-001,3.879458084702492E-002,8.907499909400940E-002,-8.992956876754761E-001,3.860095739364624E-001,
1.166900000000000E+009,5.835280567407608E-002,8.826386928558350E-002,-8.826477527618408E-001,4.060944914817810E-001,5.835280567407608E-002,8.826386928558350E-002,-8.826477527618408E-001,4.060944914817810E-001,
1.175266666666667E+009,7.433181256055832E-002,7.662121206521988E-002,-8.767791390419006E-001,4.353007078170776E-001,7.433181256055832E-002,7.662121206521988E-002,-8.767791390419006E-001,4.353007078170776E-001,
1.183633333333334E+009,8.628137409687042E-002,6.117856502532959E-002,-8.749926090240479E-001,4.468472599983215E-001,8.628137409687042E-002,6.117856502532959E-002,-8.749926090240479E-001,4.468472599983215E-001,
1.192000000000000E+009,8.609040081501007E-002,4.208594933152199E-002,-8.624455928802490E-001,4.690290987491608E-001,8.609040081501007E-002,4.208594933152199E-002,-8.624455928802490E-001,4.690290987491608E-001,
1.200366666666667E+009,7.647038251161575E-002,2.562847919762135E-002,-8.497090339660645E-001,4.909355044364929E-001,7.647038251161575E-002,2.562847919762135E-002,-8.497090339660645E-001,4.909355044364929E-001,
1.208733333333334E+009,6.153880804777145E-002,1.720997877418995E-002,-8.424077630043030E-001,5.330825448036194E-001,6.153880804777145E-002,1.720997877418995E-002,-8.424077630043030E-001,5.330825448036194E-001,
1.217100000000000E+009,4.574500769376755E-002,1.897406205534935E-002,-8.382976651191711E-001,5.427379608154297E-001,4.574500769376755E-002,1.897406205534935E-002,-8.382976651191711E-001,5.427379608154297E-001,
1.225466666666667E+009,3.380302712321281E-002,3.055917099118233E-002,-8.048338294029236E-001,5.673151016235352E-001,3.380302712321281E-002,3.055917099118233E-002,-8.048338294029236E-001,5.673151016235352E-001,
1.233833333333334E+009,2.995032444596291E-002,4.744123294949532E-002,-7.998774051666260E-001,5.786907672882080E-001,2.995032444596291E-002,4.744123294949532E-002,-7.998774051666260E-001,5.786907672882080E-001,
1.242200000000000E+009,3.888463973999023E-002,6.169850751757622E-002,-7.735298275947571E-001,6.122191548347473E-001,3.888463973999023E-002,6.169850751757622E-002,-7.735298275947571E-001,6.122191548347473E-001,
1.250566666666667E+009,5.252402648329735E-002,7.116865366697311E-002,-7.519509196281433E-001,6.167584657669067E-001,5.252402648329735E-002,7.116865366697311E-002,-7.519509196281433E-001,6.167584657669067E-001,
1.258933333333334E+009,7.304318249225617E-002,7.037408649921417E-002,-7.461267113685608E-001,6.383961439132690E-001,7.304318249225617E-002,7.037408649921417E-002,-7.461267113685608E-001,6.383961439132690E-001,
1.267300000000000E+009,9.246227890253067E-002,5.855745449662209E-002,-7.269390821456909E-001,6.526305079460144E-001,9.246227890253067E-002,5.855745449662209E-002,-7.269390821456909E-001,6.526305079460144E-001,
1.275666666666667E+009,1.012252122163773E-001,3.978086635470390E-002,-7.143230438232422E-001,6.603163480758667E-001,1.012252122163773E-001,3.978086635470390E-002,-7.143230438232422E-001,6.603163480758667E-001,
1.284033333333334E+009,1.030251905322075E-001,1.816022768616676E-002,-6.984471678733826E-001,7.021595835685730E-001,1.030251905322075E-001,1.816022768616676E-002,-6.984471678733826E-001,7.021595835685730E-001,
1.292400000000000E+009,9.256011992692947E-002,-6.030616932548583E-004,-6.864173412322998E-001,7.057083249092102E-001,9.256011992692947E-002,-6.030616932548583E-004,-6.864173412322998E-001,7.057083249092102E-001,
1.300766666666667E+009,7.320998609066010E-002,-8.927714079618454E-003,-6.636273264884949E-001,7.300850749015808E-001,7.320998609066010E-002,-8.927714079618454E-003,-6.636273264884949E-001,7.300850749015808E-001,
1.309133333333334E+009,5.323224887251854E-002,-7.135794498026371E-003,-6.386904716491699E-001,7.443317174911499E-001,5.323224887251854E-002,-7.135794498026371E-003,-6.386904716491699E-001,7.443317174911499E-001,
1.317500000000000E+009,3.922967985272408E-002,5.356772337108851E-003,-6.255655288696289E-001,7.744755744934082E-001,3.922967985272408E-002,5.356772337108851E-003,-6.255655288696289E-001,7.744755744934082E-001,
1.325866666666667E+009,3.534200787544251E-002,2.264823764562607E-002,-6.052332520484924E-001,7.893862724304199E-001,3.534200787544251E-002,2.264823764562607E-002,-6.052332520484924E-001,7.893862724304199E-001,
1.334233333333334E+009,4.422640055418015E-002,4.014370590448380E-002,-5.863376855850220E-001,7.952317595481873E-001,4.422640055418015E-002,4.014370590448380E-002,-5.863376855850220E-001,7.952317595481873E-001,
1.342600000000000E+009,6.016746908426285E-002,4.860520362854004E-002,-5.685155391693115E-001,8.122655749320984E-001,6.016746908426285E-002,4.860520362854004E-002,-5.685155391693115E-001,8.122655749320984E-001,
1.350966666666667E+009,8.037540316581726E-002,4.495339095592499E-002,-5.418079495429993E-001,8.241326212882996E-001,8.037540316581726E-002,4.495339095592499E-002,-5.418079495429993E-001,8.241326212882996E-001,
1.359333333333334E+009,9.498897194862366E-002,3.057046607136726E-002,-5.291038155555725E-001,8.228737711906433E-001,9.498897194862366E-002,3.057046607136726E-002,-5.291038155555725E-001,8.228737711906433E-001,
1.367700000000000E+009,1.001967787742615E-001,1.006250455975533E-002,-4.952067136764526E-001,8.414173126220703E-001,1.001967787742615E-001,1.006250455975533E-002,-4.952067136764526E-001,8.414173126220703E-001,
1.376066666666667E+009,9.601176530122757E-002,-1.263019535690546E-002,-4.801631569862366E-001,8.504142761230469E-001,9.601176530122757E-002,-1.263019535690546E-002,-4.801631569862366E-001,8.504142761230469E-001,
1.384433333333334E+009,7.873926311731339E-002,-2.799209766089916E-002,-4.649682044982910E-001,8.816675543785095E-001,7.873926311731339E-002,-2.799209766089916E-002,-4.649682044982910E-001,8.816675543785095E-001,
1.392800000000000E+009,5.821008607745171E-002,-3.017607331275940E-002,-4.437696933746338E-001,8.897879123687744E-001,5.821008607745171E-002,-3.017607331275940E-002,-4.437696933746338E-001,8.897879123687744E-001,
1.401166666666667E+009,3.836019709706307E-002,-2.243343181908131E-002,-4.163607656955719E-001,8.964270949363709E-001,3.836019709706307E-002,-2.243343181908131E-002,-4.163607656955719E-001,8.964270949363709E-001,
1.409533333333334E+009,2.577938325703144E-002,-4.955112002789974E-003,-3.867098093032837E-001,9.111421108245850E-001,2.577938325703144E-002,-4.955112002789974E-003,-3.867098093032837E-001,9.111421108245850E-001,
1.417900000000000E+009,2.769147045910358E-002,1.840823702514172E-002,-3.675248026847839E-001,9.065941572189331E-001,2.769147045910358E-002,1.840823702514172E-002,-3.675248026847839E-001,9.065941572189331E-001,
1.426266666666667E+009,3.937536478042603E-002,3.511697798967362E-002,-3.292349278926849E-001,9.323518872261047E-001,3.937536478042603E-002,3.511697798967362E-002,-3.292349278926849E-001,9.323518872261047E-001,
1.434633333333334E+009,6.027394533157349E-002,4.288447275757790E-002,-3.198855519294739E-001,9.261074066162109E-001,6.027394533157349E-002,4.288447275757790E-002,-3.198855519294739E-001,9.261074066162109E-001,
1.443000000000000E+009,8.089067041873932E-002,3.925048559904099E-002,-2.952433228492737E-001,9.334897398948669E-001,8.089067041873932E-002,3.925048559904099E-002,-2.952433228492737E-001,9.334897398948669E-001,
1.451366666666667E+009,9.644459187984467E-002,2.294836379587650E-002,-2.694393098354340E-001,9.333146810531616E-001,9.644459187984467E-002,2.294836379587650E-002,-2.694393098354340E-001,9.333146810531616E-001,
1.459733333333334E+009,1.023082211613655E-001,1.931559876538813E-003,-2.434635162353516E-001,9.602744579315186E-001,1.023082211613655E-001,1.931559876538813E-003,-2.434635162353516E-001,9.602744579315186E-001,
