% Version 1.00
%
%freq[Hz],re:Trc1_S11,im:Trc1_S11,re:Trc2_S21,im:Trc2_S21,re:Trc3_S11,im:Trc3_S11,re:Trc4_S21,im:Trc4_S21,
6.900000000000000E+008,-4.642606899142265E-002,3.106586262583733E-002,-4.973777234554291E-001,-8.401492834091187E-001,-4.642606899142265E-002,3.106586262583733E-002,-4.973777234554291E-001,-8.401492834091187E-001,
6.983666666666666E+008,-3.879237174987793E-002,3.206016495823860E-002,-5.232639908790588E-001,-8.304315209388733E-001,-3.879237174987793E-002,3.206016495823860E-002,-5.232639908790588E-001,-8.304315209388733E-001,
7.067333333333334E+008,-3.323138132691383E-002,2.748918160796166E-002,-5.455605983734131E-001,-8.047851920127869E-001,-3.323138132691383E-002,2.748918160796166E-002,-5.455605983734131E-001,-8.047851920127869E-001,
7.151000000000000E+008,-3.311470523476601E-002,1.998527720570564E-002,-5.804446935653687E-001,-8.024860620498657E-001,-3.311470523476601E-002,1.998527720570564E-002,-5.804446935653687E-001,-8.024860620498657E-001,
7.234666666666666E+008,-3.450883924961090E-002,1.610342040657997E-002,-5.949860215187073E-001,-7.869613766670227E-001,-3.450883924961090E-002,1.610342040657997E-002,-5.949860215187073E-001,-7.869613766670227E-001,
7.318333333333334E+008,-4.185709357261658E-002,1.467145700007677E-002,-6.130921244621277E-001,-7.699605226516724E-001,-4.185709357261658E-002,1.467145700007677E-002,-6.130921244621277E-001,-7.699605226516724E-001,
7.402000000000000E+008,-4.800068959593773E-002,1.702427677810192E-002,-6.235367655754089E-001,-7.453271746635437E-001,-4.800068959593773E-002,1.702427677810192E-002,-6.235367655754089E-001,-7.453271746635437E-001,
7.485666666666666E+008,-5.321034044027329E-002,2.443330734968185E-002,-6.538544893264771E-001,-7.321962118148804E-001,-5.321034044027329E-002,2.443330734968185E-002,-6.538544893264771E-001,-7.321962118148804E-001,
7.569333333333334E+008,-5.696758627891541E-002,3.514882549643517E-002,-6.725888252258301E-001,-7.196597456932068E-001,-5.696758627891541E-002,3.514882549643517E-002,-6.725888252258301E-001,-7.196597456932068E-001,
7.653000000000000E+008,-5.146868154406548E-002,4.417077079415321E-002,-6.801800727844238E-001,-7.001720666885376E-001,-5.146868154406548E-002,4.417077079415321E-002,-6.801800727844238E-001,-7.001720666885376E-001,
7.736666666666666E+008,-4.510077461600304E-002,5.087650194764137E-002,-6.929568648338318E-001,-6.965502500534058E-001,-4.510077461600304E-002,5.087650194764137E-002,-6.929568648338318E-001,-6.965502500534058E-001,
7.820333333333334E+008,-3.652543574571610E-002,5.518756061792374E-002,-7.259341478347778E-001,-6.683725714683533E-001,-3.652543574571610E-002,5.518756061792374E-002,-7.259341478347778E-001,-6.683725714683533E-001,
7.904000000000000E+008,-2.672509662806988E-002,5.432135984301567E-002,-7.352700829505920E-001,-6.506520509719849E-001,-2.672509662806988E-002,5.432135984301567E-002,-7.352700829505920E-001,-6.506520509719849E-001,
7.987666666666666E+008,-2.258200570940971E-002,4.934413358569145E-002,-7.404978871345520E-001,-6.344082355499268E-001,-2.258200570940971E-002,4.934413358569145E-002,-7.404978871345520E-001,-6.344082355499268E-001,
8.071333333333334E+008,-2.069160528481007E-002,4.316888377070427E-002,-7.670674324035645E-001,-6.022887825965881E-001,-2.069160528481007E-002,4.316888377070427E-002,-7.670674324035645E-001,-6.022887825965881E-001,
8.155000000000000E+008,-2.370827458798885E-002,3.645248711109161E-002,-7.932188510894775E-001,-5.914676785469055E-001,-2.370827458798885E-002,3.645248711109161E-002,-7.932188510894775E-001,-5.914676785469055E-001,
8.238666666666666E+008,-3.037300705909729E-002,3.447083011269569E-002,-7.994072437286377E-001,-5.677688717842102E-001,-3.037300705909729E-002,3.447083011269569E-002,-7.994072437286377E-001,-5.677688717842102E-001,
8.322333333333334E+008,-3.580213710665703E-002,3.607831895351410E-002,-8.087975978851318E-001,-5.500020980834961E-001,-3.580213710665703E-002,3.607831895351410E-002,-8.087975978851318E-001,-5.500020980834961E-001,
8.406000000000000E+008,-4.030711948871613E-002,3.937388584017754E-002,-8.209225535392761E-001,-5.277836322784424E-001,-4.030711948871613E-002,3.937388584017754E-002,-8.209225535392761E-001,-5.277836322784424E-001,
8.489666666666668E+008,-4.152533784508705E-002,5.048020184040070E-002,-8.323499560356140E-001,-4.984059929847717E-001,-4.152533784508705E-002,5.048020184040070E-002,-8.323499560356140E-001,-4.984059929847717E-001,
8.573333333333334E+008,-3.916912153363228E-002,5.828097462654114E-002,-8.344548940658569E-001,-4.682624638080597E-001,-3.916912153363228E-002,5.828097462654114E-002,-8.344548940658569E-001,-4.682624638080597E-001,
8.657000000000000E+008,-3.365915641188622E-002,6.582129746675491E-002,-8.614538311958313E-001,-4.715694487094879E-001,-3.365915641188622E-002,6.582129746675491E-002,-8.614538311958313E-001,-4.715694487094879E-001,
8.740666666666668E+008,-2.440423704683781E-002,7.088445127010346E-002,-8.677561283111572E-001,-4.478246569633484E-001,-2.440423704683781E-002,7.088445127010346E-002,-8.677561283111572E-001,-4.478246569633484E-001,
8.824333333333334E+008,-1.615330018103123E-002,7.235153764486313E-002,-8.859959840774536E-001,-4.234682619571686E-001,-1.615330018103123E-002,7.235153764486313E-002,-8.859959840774536E-001,-4.234682619571686E-001,
8.908000000000000E+008,-8.141674101352692E-003,6.890758872032166E-002,-8.991987109184265E-001,-4.059158265590668E-001,-8.141674101352692E-003,6.890758872032166E-002,-8.991987109184265E-001,-4.059158265590668E-001,
8.991666666666668E+008,-2.755684545263648E-003,6.314931064844132E-002,-8.996760845184326E-001,-3.786981105804443E-001,-2.755684545263648E-003,6.314931064844132E-002,-8.996760845184326E-001,-3.786981105804443E-001,
9.075333333333334E+008,-2.394888317212462E-003,5.579016730189323E-002,-9.133052825927734E-001,-3.534217178821564E-001,-2.394888317212462E-003,5.579016730189323E-002,-9.133052825927734E-001,-3.534217178821564E-001,
9.159000000000000E+008,-5.299970507621765E-003,5.010103061795235E-002,-9.341723322868347E-001,-3.284719288349152E-001,-5.299970507621765E-003,5.010103061795235E-002,-9.341723322868347E-001,-3.284719288349152E-001,
9.242666666666668E+008,-1.193446200340986E-002,5.031337961554527E-002,-9.256591200828552E-001,-3.068088293075562E-001,-1.193446200340986E-002,5.031337961554527E-002,-9.256591200828552E-001,-3.068088293075562E-001,
9.326333333333334E+008,-1.685963571071625E-002,5.240283161401749E-002,-9.411941170692444E-001,-2.925356924533844E-001,-1.685963571071625E-002,5.240283161401749E-002,-9.411941170692444E-001,-2.925356924533844E-001,
9.410000000000000E+008,-2.061269432306290E-002,5.667437613010407E-002,-9.513169527053833E-001,-2.564668059349060E-001,-2.061269432306290E-002,5.667437613010407E-002,-9.513169527053833E-001,-2.564668059349060E-001,
9.493666666666668E+008,-2.177097275853157E-002,6.576740741729736E-002,-9.555452466011047E-001,-2.260502576828003E-001,-2.177097275853157E-002,6.576740741729736E-002,-9.555452466011047E-001,-2.260502576828003E-001,
9.577333333333334E+008,-1.779722981154919E-002,7.530746608972549E-002,-9.615620970726013E-001,-2.125918865203857E-001,-1.779722981154919E-002,7.530746608972549E-002,-9.615620970726013E-001,-2.125918865203857E-001,
9.661000000000000E+008,-8.803135715425015E-003,8.170135319232941E-002,-9.619773626327515E-001,-1.707482784986496E-001,-8.803135715425015E-003,8.170135319232941E-002,-9.619773626327515E-001,-1.707482784986496E-001,
9.744666666666668E+008,2.101874910295010E-003,8.179459720849991E-002,-9.596503376960754E-001,-1.611313670873642E-001,2.101874910295010E-003,8.179459720849991E-002,-9.596503376960754E-001,-1.611313670873642E-001,
9.828333333333334E+008,1.141700986772776E-002,8.275739848613739E-002,-9.752612113952637E-001,-1.413976848125458E-001,1.141700986772776E-002,8.275739848613739E-002,-9.752612113952637E-001,-1.413976848125458E-001,
9.912000000000000E+008,2.190138399600983E-002,7.639522850513458E-002,-9.725224375724793E-001,-1.196727156639099E-001,2.190138399600983E-002,7.639522850513458E-002,-9.725224375724793E-001,-1.196727156639099E-001,
9.995666666666668E+008,2.551476098597050E-002,6.876116245985031E-002,-9.848941564559937E-001,-8.286286890506744E-002,2.551476098597050E-002,6.876116245985031E-002,-9.848941564559937E-001,-8.286286890506744E-002,
1.007933333333333E+009,2.899851277470589E-002,5.926988273859024E-002,-9.980866312980652E-001,-6.517603993415833E-002,2.899851277470589E-002,5.926988273859024E-002,-9.980866312980652E-001,-6.517603993415833E-002,
1.016300000000000E+009,2.280438877642155E-002,5.340619757771492E-002,-9.850715398788452E-001,-3.948534280061722E-002,2.280438877642155E-002,5.340619757771492E-002,-9.850715398788452E-001,-3.948534280061722E-002,
1.024666666666667E+009,1.507511641830206E-002,4.974946007132530E-002,-9.807152152061462E-001,-1.351246144622564E-002,1.507511641830206E-002,4.974946007132530E-002,-9.807152152061462E-001,-1.351246144622564E-002,
1.033033333333333E+009,1.019762549549341E-002,5.437297001481056E-002,-9.871625304222107E-001,1.264850795269013E-002,1.019762549549341E-002,5.437297001481056E-002,-9.871625304222107E-001,1.264850795269013E-002,
1.041400000000000E+009,3.843497019261122E-003,5.928445979952812E-002,-9.866020083427429E-001,3.368484973907471E-002,3.843497019261122E-003,5.928445979952812E-002,-9.866020083427429E-001,3.368484973907471E-002,
1.049766666666667E+009,7.400613743811846E-003,6.849960237741470E-002,-9.722238779067993E-001,6.956192851066589E-002,7.400613743811846E-003,6.849960237741470E-002,-9.722238779067993E-001,6.956192851066589E-002,
1.058133333333333E+009,1.214613486081362E-002,7.727045565843582E-002,-9.734091162681580E-001,9.158880263566971E-002,1.214613486081362E-002,7.727045565843582E-002,-9.734091162681580E-001,9.158880263566971E-002,
1.066500000000000E+009,2.376585826277733E-002,8.104871958494186E-002,-9.877625107765198E-001,1.256419867277145E-001,2.376585826277733E-002,8.104871958494186E-002,-9.877625107765198E-001,1.256419867277145E-001,
1.074866666666667E+009,3.755453974008560E-002,7.931849360466003E-002,-9.818603396415710E-001,1.457099020481110E-001,3.755453974008560E-002,7.931849360466003E-002,-9.818603396415710E-001,1.457099020481110E-001,
1.083233333333334E+009,4.637795314192772E-002,7.104653865098953E-002,-9.650763869285584E-001,1.660890728235245E-001,4.637795314192772E-002,7.104653865098953E-002,-9.650763869285584E-001,1.660890728235245E-001,
1.091600000000000E+009,5.283433943986893E-002,6.033582612872124E-002,-9.475620388984680E-001,1.853927671909332E-001,5.283433943986893E-002,6.033582612872124E-002,-9.475620388984680E-001,1.853927671909332E-001,
1.099966666666667E+009,5.191791057586670E-002,4.706387221813202E-002,-9.428959488868713E-001,2.233099490404129E-001,5.191791057586670E-002,4.706387221813202E-002,-9.428959488868713E-001,2.233099490404129E-001,
1.108333333333334E+009,4.374968633055687E-002,3.932625055313110E-002,-9.431645274162293E-001,2.319003492593765E-001,4.374968633055687E-002,3.932625055313110E-002,-9.431645274162293E-001,2.319003492593765E-001,
1.116700000000000E+009,3.339647501707077E-002,3.636249899864197E-002,-9.355130195617676E-001,2.652031779289246E-001,3.339647501707077E-002,3.636249899864197E-002,-9.355130195617676E-001,2.652031779289246E-001,
1.125066666666667E+009,2.257427759468556E-002,4.113652557134628E-002,-9.357500076293945E-001,2.821817994117737E-001,2.257427759468556E-002,4.113652557134628E-002,-9.357500076293945E-001,2.821817994117737E-001,
1.133433333333334E+009,1.512723602354527E-002,5.085666850209236E-002,-9.323865771293640E-001,3.267118930816650E-001,1.512723602354527E-002,5.085666850209236E-002,-9.323865771293640E-001,3.267118930816650E-001,
1.141800000000000E+009,1.436977647244930E-002,6.405389308929443E-002,-9.095194935798645E-001,3.412495255470276E-001,1.436977647244930E-002,6.405389308929443E-002,-9.095194935798645E-001,3.412495255470276E-001,
1.150166666666667E+009,2.367612347006798E-002,7.775203138589859E-002,-9.004558324813843E-001,3.418246209621429E-001,2.367612347006798E-002,7.775203138589859E-002,-9.004558324813843E-001,3.418246209621429E-001,
1.158533333333334E+009,3.988643363118172E-002,8.402650058269501E-002,-8.924700617790222E-001,3.814018666744232E-001,3.988643363118172E-002,8.402650058269501E-002,-8.924700617790222E-001,3.814018666744232E-001,
1.166900000000000E+009,5.910235643386841E-002,8.320873975753784E-002,-8.759813308715820E-001,4.011975526809692E-001,5.910235643386841E-002,8.320873975753784E-002,-8.759813308715820E-001,4.011975526809692E-001,
1.175266666666667E+009,7.491032779216766E-002,7.190845161676407E-002,-8.702285885810852E-001,4.302335381507874E-001,7.491032779216766E-002,7.190845161676407E-002,-8.702285885810852E-001,4.302335381507874E-001,
1.183633333333334E+009,8.670499920845032E-002,5.691063776612282E-002,-8.684085011482239E-001,4.416568279266357E-001,8.670499920845032E-002,5.691063776612282E-002,-8.684085011482239E-001,4.416568279266357E-001,
1.192000000000000E+009,8.645449578762054E-002,3.817057982087135E-002,-8.561984896659851E-001,4.640139341354370E-001,8.645449578762054E-002,3.817057982087135E-002,-8.561984896659851E-001,4.640139341354370E-001,
1.200366666666667E+009,7.692497223615646E-002,2.206340804696083E-002,-8.439563512802124E-001,4.854216873645783E-001,7.692497223615646E-002,2.206340804696083E-002,-8.439563512802124E-001,4.854216873645783E-001,
1.208733333333334E+009,6.221924722194672E-002,1.366097200661898E-002,-8.363489508628845E-001,5.272032618522644E-001,6.221924722194672E-002,1.366097200661898E-002,-8.363489508628845E-001,5.272032618522644E-001,
1.217100000000000E+009,4.662365466356278E-002,1.530298404395580E-002,-8.321210741996765E-001,5.376534461975098E-001,4.662365466356278E-002,1.530298404395580E-002,-8.321210741996765E-001,5.376534461975098E-001,
1.225466666666667E+009,3.478547185659409E-002,2.632373385131359E-002,-7.991675734519959E-001,5.618724226951599E-001,3.478547185659409E-002,2.632373385131359E-002,-7.991675734519959E-001,5.618724226951599E-001,
1.233833333333334E+009,3.092297539114952E-002,4.273411631584168E-002,-7.939765453338623E-001,5.734097361564636E-001,3.092297539114952E-002,4.273411631584168E-002,-7.939765453338623E-001,5.734097361564636E-001,
1.242200000000000E+009,3.985397517681122E-002,5.657333135604858E-002,-7.677952051162720E-001,6.061517596244812E-001,3.985397517681122E-002,5.657333135604858E-002,-7.677952051162720E-001,6.061517596244812E-001,
1.250566666666667E+009,5.318876728415489E-002,6.559193879365921E-002,-7.461242675781250E-001,6.111593842506409E-001,5.318876728415489E-002,6.559193879365921E-002,-7.461242675781250E-001,6.111593842506409E-001,
1.258933333333334E+009,7.344298064708710E-002,6.465594470500946E-002,-7.410076856613159E-001,6.327052712440491E-001,7.344298064708710E-002,6.465594470500946E-002,-7.410076856613159E-001,6.327052712440491E-001,
1.267300000000000E+009,9.246481209993362E-002,5.300194770097733E-002,-7.218037247657776E-001,6.460394263267517E-001,9.246481209993362E-002,5.300194770097733E-002,-7.218037247657776E-001,6.460394263267517E-001,
1.275666666666667E+009,1.013241857290268E-001,3.456795215606690E-002,-7.095510363578796E-001,6.543110609054565E-001,1.013241857290268E-001,3.456795215606690E-002,-7.095510363578796E-001,6.543110609054565E-001,
1.284033333333334E+009,1.031635329127312E-001,1.337984669953585E-002,-6.937235593795776E-001,6.958676576614380E-001,1.031635329127312E-001,1.337984669953585E-002,-6.937235593795776E-001,6.958676576614380E-001,
1.292400000000000E+009,9.267049282789230E-002,-5.139620508998632E-003,-6.821597814559937E-001,6.991481184959412E-001,9.267049282789230E-002,-5.139620508998632E-003,-6.821597814559937E-001,6.991481184959412E-001,
1.300766666666667E+009,7.331500202417374E-002,-1.333678979426622E-002,-6.594573855400085E-001,7.232055664062500E-001,7.331500202417374E-002,-1.333678979426622E-002,-6.594573855400085E-001,7.232055664062500E-001,
1.309133333333334E+009,5.351472273468971E-002,-1.149074081331492E-002,-6.346077322959900E-001,7.378670573234558E-001,5.351472273468971E-002,-1.149074081331492E-002,-6.346077322959900E-001,7.378670573234558E-001,
1.317500000000000E+009,3.956475108861923E-002,7.518510101363063E-004,-6.211357116699219E-001,7.678568959236145E-001,3.956475108861923E-002,7.518510101363063E-004,-6.211357116699219E-001,7.678568959236145E-001,
1.325866666666667E+009,3.550904989242554E-002,1.763336546719074E-002,-6.011113524436951E-001,7.828834056854248E-001,3.550904989242554E-002,1.763336546719074E-002,-6.011113524436951E-001,7.828834056854248E-001,
1.334233333333334E+009,4.405944421887398E-002,3.471066802740097E-002,-5.827181935310364E-001,7.881137728691101E-001,4.405944421887398E-002,3.471066802740097E-002,-5.827181935310364E-001,7.881137728691101E-001,
1.342600000000000E+009,5.974372103810310E-002,4.284600168466568E-002,-5.650210976600647E-001,8.047387599945068E-001,5.974372103810310E-002,4.284600168466568E-002,-5.650210976600647E-001,8.047387599945068E-001,
1.350966666666667E+009,7.968450337648392E-002,3.900824114680290E-002,-5.391575694084168E-001,8.163460493087769E-001,7.968450337648392E-002,3.900824114680290E-002,-5.391575694084168E-001,8.163460493087769E-001,
1.359333333333334E+009,9.417559206485748E-002,2.472252026200295E-002,-5.260440707206726E-001,8.153774142265320E-001,9.417559206485748E-002,2.472252026200295E-002,-5.260440707206726E-001,8.153774142265320E-001,
1.367700000000000E+009,9.948743879795075E-002,4.440084565430880E-003,-4.927987456321716E-001,8.338182568550110E-001,9.948743879795075E-002,4.440084565430880E-003,-4.927987456321716E-001,8.338182568550110E-001,
1.376066666666667E+009,9.536843746900559E-002,-1.797249913215637E-002,-4.777398109436035E-001,8.427760601043701E-001,9.536843746900559E-002,-1.797249913215637E-002,-4.777398109436035E-001,8.427760601043701E-001,
1.384433333333334E+009,7.827376574277878E-002,-3.309354186058044E-002,-4.628490209579468E-001,8.735486865043640E-001,7.827376574277878E-002,-3.309354186058044E-002,-4.628490209579468E-001,8.735486865043640E-001,
1.392800000000000E+009,5.809280648827553E-002,-3.510555252432823E-002,-4.417099356651306E-001,8.820400834083557E-001,5.809280648827553E-002,-3.510555252432823E-002,-4.417099356651306E-001,8.820400834083557E-001,
1.401166666666667E+009,3.824442625045776E-002,-2.745711058378220E-002,-4.147027134895325E-001,8.890230059623718E-001,3.824442625045776E-002,-2.745711058378220E-002,-4.147027134895325E-001,8.890230059623718E-001,
1.409533333333334E+009,2.564354054629803E-002,-1.003650389611721E-002,-3.851733505725861E-001,9.034759402275085E-001,2.564354054629803E-002,-1.003650389611721E-002,-3.851733505725861E-001,9.034759402275085E-001,
1.417900000000000E+009,2.742867916822434E-002,1.299449801445007E-002,-3.653758466243744E-001,8.992241024971008E-001,2.742867916822434E-002,1.299449801445007E-002,-3.653758466243744E-001,8.992241024971008E-001,
1.426266666666667E+009,3.862012177705765E-002,2.940287999808788E-002,-3.283188641071320E-001,9.251171946525574E-001,3.862012177705765E-002,2.940287999808788E-002,-3.283188641071320E-001,9.251171946525574E-001,
1.434633333333334E+009,5.916086956858635E-002,3.678594157099724E-002,-3.181574344635010E-001,9.186228513717651E-001,5.916086956858635E-002,3.678594157099724E-002,-3.181574344635010E-001,9.186228513717651E-001,
1.443000000000000E+009,7.925879955291748E-002,3.299766033887863E-002,-2.941201925277710E-001,9.259800910949707E-001,7.925879955291748E-002,3.299766033887863E-002,-2.941201925277710E-001,9.259800910949707E-001,
1.451366666666667E+009,9.443981945514679E-002,1.652862876653671E-002,-2.683840990066528E-001,9.257205724716187E-001,9.443981945514679E-002,1.652862876653671E-002,-2.683840990066528E-001,9.257205724716187E-001,
1.459733333333334E+009,1.002328768372536E-001,-4.449900705367327E-003,-2.423863559961319E-001,9.520141482353210E-001,1.002328768372536E-001,-4.449900705367327E-003,-2.423863559961319E-001,9.520141482353210E-001,
