% Version 1.00
%
%freq[Hz],re:Trc1_S11,im:Trc1_S11,re:Trc2_S21,im:Trc2_S21,re:Trc3_S11,im:Trc3_S11,re:Trc4_S21,im:Trc4_S21,
6.900000000000000E+008,-4.079965129494667E-002,2.972917258739471E-002,-4.989784359931946E-001,-8.572114109992981E-001,-4.079965129494667E-002,2.972917258739471E-002,-4.989784359931946E-001,-8.572114109992981E-001,
6.983666666666666E+008,-3.326979652047157E-002,2.960598655045033E-002,-5.179397463798523E-001,-8.492590785026550E-001,-3.326979652047157E-002,2.960598655045033E-002,-5.179397463798523E-001,-8.492590785026550E-001,
7.067333333333334E+008,-2.696908265352249E-002,2.478665299713612E-002,-5.456385612487793E-001,-8.203966617584229E-001,-2.696908265352249E-002,2.478665299713612E-002,-5.456385612487793E-001,-8.203966617584229E-001,
7.151000000000000E+008,-2.645734697580338E-002,1.696698926389217E-002,-5.795459747314453E-001,-8.196856379508972E-001,-2.645734697580338E-002,1.696698926389217E-002,-5.795459747314453E-001,-8.196856379508972E-001,
7.234666666666666E+008,-2.770855836570263E-002,1.112162787467241E-002,-5.922905802726746E-001,-8.019157052040100E-001,-2.770855836570263E-002,1.112162787467241E-002,-5.922905802726746E-001,-8.019157052040100E-001,
7.318333333333334E+008,-3.501116484403610E-002,8.795181289315224E-003,-6.141989827156067E-001,-7.881845831871033E-001,-3.501116484403610E-002,8.795181289315224E-003,-6.141989827156067E-001,-7.881845831871033E-001,
7.402000000000000E+008,-4.077935591340065E-002,1.045526657253504E-002,-6.182861924171448E-001,-7.595166563987732E-001,-4.077935591340065E-002,1.045526657253504E-002,-6.182861924171448E-001,-7.595166563987732E-001,
7.485666666666666E+008,-4.622564464807510E-002,1.715045981109142E-002,-6.504881978034973E-001,-7.495760917663574E-001,-4.622564464807510E-002,1.715045981109142E-002,-6.504881978034973E-001,-7.495760917663574E-001,
7.569333333333334E+008,-5.044060945510864E-002,2.661118470132351E-002,-6.651873588562012E-001,-7.373679876327515E-001,-5.044060945510864E-002,2.661118470132351E-002,-6.651873588562012E-001,-7.373679876327515E-001,
7.653000000000000E+008,-4.638180136680603E-002,3.576829284429550E-002,-6.761875152587891E-001,-7.163847088813782E-001,-4.638180136680603E-002,3.576829284429550E-002,-6.761875152587891E-001,-7.163847088813782E-001,
7.736666666666666E+008,-4.083244875073433E-002,4.257723689079285E-002,-6.885640621185303E-001,-7.158813476562500E-001,-4.083244875073433E-002,4.257723689079285E-002,-6.885640621185303E-001,-7.158813476562500E-001,
7.820333333333334E+008,-3.299094364047051E-002,4.636206105351448E-002,-7.199854850769043E-001,-6.853901743888855E-001,-3.299094364047051E-002,4.636206105351448E-002,-7.199854850769043E-001,-6.853901743888855E-001,
7.904000000000000E+008,-2.384313195943832E-002,4.449350759387016E-002,-7.292911410331726E-001,-6.680244207382202E-001,-2.384313195943832E-002,4.449350759387016E-002,-7.292911410331726E-001,-6.680244207382202E-001,
7.987666666666666E+008,-1.967225037515163E-002,3.924558311700821E-002,-7.378761172294617E-001,-6.504540443420410E-001,-1.967225037515163E-002,3.924558311700821E-002,-7.378761172294617E-001,-6.504540443420410E-001,
8.071333333333334E+008,-1.747615449130535E-002,3.173644095659256E-002,-7.631525993347168E-001,-6.172171831130981E-001,-1.747615449130535E-002,3.173644095659256E-002,-7.631525993347168E-001,-6.172171831130981E-001,
8.155000000000000E+008,-2.040826715528965E-002,2.443843334913254E-002,-7.922919988632202E-001,-6.077340841293335E-001,-2.040826715528965E-002,2.443843334913254E-002,-7.922919988632202E-001,-6.077340841293335E-001,
8.238666666666666E+008,-2.633069641888142E-002,2.199581079185009E-002,-7.980216145515442E-001,-5.850614309310913E-001,-2.633069641888142E-002,2.199581079185009E-002,-7.980216145515442E-001,-5.850614309310913E-001,
8.322333333333334E+008,-3.175030276179314E-002,2.336218953132629E-002,-8.099263906478882E-001,-5.640816688537598E-001,-3.175030276179314E-002,2.336218953132629E-002,-8.099263906478882E-001,-5.640816688537598E-001,
8.406000000000000E+008,-3.682994097471237E-002,2.621007151901722E-002,-8.223915696144104E-001,-5.436151623725891E-001,-3.682994097471237E-002,2.621007151901722E-002,-8.223915696144104E-001,-5.436151623725891E-001,
8.489666666666668E+008,-3.867232799530029E-002,3.737881779670715E-002,-8.311048746109009E-001,-5.169484615325928E-001,-3.867232799530029E-002,3.737881779670715E-002,-8.311048746109009E-001,-5.169484615325928E-001,
8.573333333333334E+008,-3.697060048580170E-002,4.575134813785553E-002,-8.324083089828491E-001,-4.856735169887543E-001,-3.697060048580170E-002,4.575134813785553E-002,-8.324083089828491E-001,-4.856735169887543E-001,
8.657000000000000E+008,-3.269663453102112E-002,5.338186770677567E-002,-8.590872883796692E-001,-4.925237298011780E-001,-3.269663453102112E-002,5.338186770677567E-002,-8.590872883796692E-001,-4.925237298011780E-001,
8.740666666666668E+008,-2.426980063319206E-002,5.897128954529762E-002,-8.690490126609802E-001,-4.612044095993042E-001,-2.426980063319206E-002,5.897128954529762E-002,-8.690490126609802E-001,-4.612044095993042E-001,
8.824333333333334E+008,-1.710083149373531E-002,6.038923561573029E-002,-8.849819898605347E-001,-4.412926435470581E-001,-1.710083149373531E-002,6.038923561573029E-002,-8.849819898605347E-001,-4.412926435470581E-001,
8.908000000000000E+008,-9.612110443413258E-003,5.665652453899384E-002,-8.982750177383423E-001,-4.253401458263397E-001,-9.612110443413258E-003,5.665652453899384E-002,-8.982750177383423E-001,-4.253401458263397E-001,
8.991666666666668E+008,-4.924660548567772E-003,5.066433921456337E-002,-8.988978862762451E-001,-4.008225798606873E-001,-4.924660548567772E-003,5.066433921456337E-002,-8.988978862762451E-001,-4.008225798606873E-001,
9.075333333333334E+008,-4.234616644680500E-003,4.260135814547539E-002,-9.146876931190491E-001,-3.719427883625031E-001,-4.234616644680500E-003,4.260135814547539E-002,-9.146876931190491E-001,-3.719427883625031E-001,
9.159000000000000E+008,-6.702212151139975E-003,3.593773767352104E-002,-9.374665617942810E-001,-3.486829102039337E-001,-6.702212151139975E-003,3.593773767352104E-002,-9.374665617942810E-001,-3.486829102039337E-001,
9.242666666666668E+008,-1.351201534271240E-002,3.590450435876846E-002,-9.281753897666931E-001,-3.259518444538117E-001,-1.351201534271240E-002,3.590450435876846E-002,-9.281753897666931E-001,-3.259518444538117E-001,
9.326333333333334E+008,-1.837065070867539E-002,3.715201839804649E-002,-9.458566308021545E-001,-3.120626807212830E-001,-1.837065070867539E-002,3.715201839804649E-002,-9.458566308021545E-001,-3.120626807212830E-001,
9.410000000000000E+008,-2.223715186119080E-002,4.150509461760521E-002,-9.566237926483154E-001,-2.773011624813080E-001,-2.223715186119080E-002,4.150509461760521E-002,-9.566237926483154E-001,-2.773011624813080E-001,
9.493666666666668E+008,-2.415831200778484E-002,5.029898136854172E-002,-9.598355293273926E-001,-2.466233968734741E-001,-2.415831200778484E-002,5.029898136854172E-002,-9.598355293273926E-001,-2.466233968734741E-001,
9.577333333333334E+008,-2.103973180055618E-002,6.075322628021240E-002,-9.659304022789002E-001,-2.322660684585571E-001,-2.103973180055618E-002,6.075322628021240E-002,-9.659304022789002E-001,-2.322660684585571E-001,
9.661000000000000E+008,-1.289090886712074E-002,6.808449327945709E-002,-9.675162434577942E-001,-1.908972114324570E-001,-1.289090886712074E-002,6.808449327945709E-002,-9.675162434577942E-001,-1.908972114324570E-001,
9.744666666666668E+008,-2.793885301798582E-003,6.916376203298569E-002,-9.652268290519714E-001,-1.793596744537354E-001,-2.793885301798582E-003,6.916376203298569E-002,-9.652268290519714E-001,-1.793596744537354E-001,
9.828333333333334E+008,5.619606468826532E-003,7.009774446487427E-002,-9.828764200210571E-001,-1.594955474138260E-001,5.619606468826532E-003,7.009774446487427E-002,-9.828764200210571E-001,-1.594955474138260E-001,
9.912000000000000E+008,1.581048406660557E-002,6.466218084096909E-002,-9.783014655113220E-001,-1.390132457017899E-001,1.581048406660557E-002,6.466218084096909E-002,-9.783014655113220E-001,-1.390132457017899E-001,
9.995666666666668E+008,1.893700659275055E-002,5.615877732634544E-002,-9.902346730232239E-001,-1.026986837387085E-001,1.893700659275055E-002,5.615877732634544E-002,-9.902346730232239E-001,-1.026986837387085E-001,
1.007933333333333E+009,2.184659428894520E-002,4.666774719953537E-002,-1.012744307518005E+000,-8.659556508064270E-002,2.184659428894520E-002,4.666774719953537E-002,-1.012744307518005E+000,-8.659556508064270E-002,
1.016300000000000E+009,1.549544651061297E-002,3.923445194959641E-002,-9.903081655502319E-001,-6.028642132878304E-002,1.549544651061297E-002,3.923445194959641E-002,-9.903081655502319E-001,-6.028642132878304E-002,
1.024666666666667E+009,8.403069339692593E-003,3.471897169947624E-002,-9.911825656890869E-001,-3.224972262978554E-002,8.403069339692593E-003,3.471897169947624E-002,-9.911825656890869E-001,-3.224972262978554E-002,
1.033033333333333E+009,3.284395905211568E-003,3.902810066938400E-002,-9.967940449714661E-001,-6.609796546399593E-003,3.284395905211568E-003,3.902810066938400E-002,-9.967940449714661E-001,-6.609796546399593E-003,
1.041400000000000E+009,-3.744356334209442E-003,4.375891387462616E-002,-1.002629399299622E+000,1.428127847611904E-002,-3.744356334209442E-003,4.375891387462616E-002,-1.002629399299622E+000,1.428127847611904E-002,
1.049766666666667E+009,-6.271928432397544E-004,5.359904468059540E-002,-9.865351319313049E-001,4.928696528077126E-002,-6.271928432397544E-004,5.359904468059540E-002,-9.865351319313049E-001,4.928696528077126E-002,
1.058133333333333E+009,3.357822308316827E-003,6.300781667232513E-002,-9.854748845100403E-001,6.992195546627045E-002,3.357822308316827E-003,6.300781667232513E-002,-9.854748845100403E-001,6.992195546627045E-002,
1.066500000000000E+009,1.490830909460783E-002,6.846334040164948E-002,-1.003562569618225E+000,1.054719388484955E-001,1.490830909460783E-002,6.846334040164948E-002,-1.003562569618225E+000,1.054719388484955E-001,
1.074866666666667E+009,2.754963748157024E-002,6.849462538957596E-002,-9.961647987365723E-001,1.252728998661041E-001,2.754963748157024E-002,6.849462538957596E-002,-9.961647987365723E-001,1.252728998661041E-001,
1.083233333333334E+009,3.541727364063263E-002,6.094239652156830E-002,-9.770963191986084E-001,1.479777544736862E-001,3.541727364063263E-002,6.094239652156830E-002,-9.770963191986084E-001,1.479777544736862E-001,
1.091600000000000E+009,4.208190366625786E-002,5.096522718667984E-002,-9.632159471511841E-001,1.678981631994247E-001,4.208190366625786E-002,5.096522718667984E-002,-9.632159471511841E-001,1.678981631994247E-001,
1.099966666666667E+009,4.115600883960724E-002,3.673099726438522E-002,-9.574569463729858E-001,2.060491293668747E-001,4.115600883960724E-002,3.673099726438522E-002,-9.574569463729858E-001,2.060491293668747E-001,
1.108333333333334E+009,3.264060616493225E-002,2.847000956535339E-002,-9.608471989631653E-001,2.182499319314957E-001,3.264060616493225E-002,2.847000956535339E-002,-9.608471989631653E-001,2.182499319314957E-001,
1.116700000000000E+009,2.164977230131626E-002,2.352983690798283E-002,-9.521166086196899E-001,2.503103315830231E-001,2.164977230131626E-002,2.352983690798283E-002,-9.521166086196899E-001,2.503103315830231E-001,
1.125066666666667E+009,1.001533679664135E-002,2.695913240313530E-002,-9.520890712738037E-001,2.646960914134979E-001,1.001533679664135E-002,2.695913240313530E-002,-9.520890712738037E-001,2.646960914134979E-001,
1.133433333333334E+009,1.863396842963994E-003,3.610546141862869E-002,-9.507905840873718E-001,3.099273443222046E-001,1.863396842963994E-003,3.610546141862869E-002,-9.507905840873718E-001,3.099273443222046E-001,
1.141800000000000E+009,1.602193806320429E-004,5.014730244874954E-002,-9.255445003509522E-001,3.283251523971558E-001,1.602193806320429E-004,5.014730244874954E-002,-9.255445003509522E-001,3.283251523971558E-001,
1.150166666666667E+009,8.849349804222584E-003,6.431557238101959E-002,-9.210523366928101E-001,3.250613808631897E-001,8.849349804222584E-003,6.431557238101959E-002,-9.210523366928101E-001,3.250613808631897E-001,
1.158533333333334E+009,2.421341650187969E-002,7.247404754161835E-002,-9.122212529182434E-001,3.659655749797821E-001,2.421341650187969E-002,7.247404754161835E-002,-9.122212529182434E-001,3.659655749797821E-001,
1.166900000000000E+009,4.352486506104469E-002,7.310500741004944E-002,-8.955352902412415E-001,3.871882855892181E-001,4.352486506104469E-002,7.310500741004944E-002,-8.955352902412415E-001,3.871882855892181E-001,
1.175266666666667E+009,5.960090458393097E-002,6.383526325225830E-002,-8.894306421279907E-001,4.142910242080689E-001,5.960090458393097E-002,6.383526325225830E-002,-8.894306421279907E-001,4.142910242080689E-001,
1.183633333333334E+009,7.167553901672363E-002,5.007349327206612E-002,-8.859661221504211E-001,4.296354055404663E-001,7.167553901672363E-002,5.007349327206612E-002,-8.859661221504211E-001,4.296354055404663E-001,
1.192000000000000E+009,7.183784991502762E-002,3.125493973493576E-002,-8.774344921112061E-001,4.515868723392487E-001,7.183784991502762E-002,3.125493973493576E-002,-8.774344921112061E-001,4.515868723392487E-001,
1.200366666666667E+009,6.201423704624176E-002,1.486554555594921E-002,-8.635379076004028E-001,4.726440906524658E-001,6.201423704624176E-002,1.486554555594921E-002,-8.635379076004028E-001,4.726440906524658E-001,
1.208733333333334E+009,4.658268392086029E-002,5.025460384786129E-003,-8.596690893173218E-001,5.126591324806213E-001,4.658268392086029E-002,5.025460384786129E-003,-8.596690893173218E-001,5.126591324806213E-001,
1.217100000000000E+009,3.005940280854702E-002,5.352024920284748E-003,-8.532450199127197E-001,5.246973633766174E-001,3.005940280854702E-002,5.352024920284748E-003,-8.532450199127197E-001,5.246973633766174E-001,
1.225466666666667E+009,1.676082797348499E-002,1.529939193278551E-002,-8.225657343864441E-001,5.485064387321472E-001,1.676082797348499E-002,1.529939193278551E-002,-8.225657343864441E-001,5.485064387321472E-001,
1.233833333333334E+009,1.194162201136351E-002,3.175365552306175E-002,-8.168312907218933E-001,5.615962743759155E-001,1.194162201136351E-002,3.175365552306175E-002,-8.168312907218933E-001,5.615962743759155E-001,
1.242200000000000E+009,1.974151097238064E-002,4.635458439588547E-002,-7.911911010742188E-001,5.937637090682983E-001,1.974151097238064E-002,4.635458439588547E-002,-7.911911010742188E-001,5.937637090682983E-001,
1.250566666666667E+009,3.283686190843582E-002,5.730697140097618E-002,-7.710432410240173E-001,6.002867221832275E-001,3.283686190843582E-002,5.730697140097618E-002,-7.710432410240173E-001,6.002867221832275E-001,
1.258933333333334E+009,5.406412109732628E-002,5.837643891572952E-002,-7.640516161918640E-001,6.221397519111633E-001,5.406412109732628E-002,5.837643891572952E-002,-7.640516161918640E-001,6.221397519111633E-001,
1.267300000000000E+009,7.406739890575409E-002,4.850067198276520E-002,-7.466163039207459E-001,6.376232504844666E-001,7.406739890575409E-002,4.850067198276520E-002,-7.466163039207459E-001,6.376232504844666E-001,
1.275666666666667E+009,8.403451740741730E-002,3.155688568949699E-002,-7.356831431388855E-001,6.472337841987610E-001,8.403451740741730E-002,3.155688568949699E-002,-7.356831431388855E-001,6.472337841987610E-001,
1.284033333333334E+009,8.626668155193329E-002,1.040807180106640E-002,-7.187161445617676E-001,6.870183348655701E-001,8.626668155193329E-002,1.040807180106640E-002,-7.187161445617676E-001,6.870183348655701E-001,
1.292400000000000E+009,7.580598443746567E-002,-8.319178596138954E-003,-7.076987028121948E-001,6.909842491149902E-001,7.580598443746567E-002,-8.319178596138954E-003,-7.076987028121948E-001,6.909842491149902E-001,
1.300766666666667E+009,5.577506497502327E-002,-1.718062162399292E-002,-6.830328702926636E-001,7.147553563117981E-001,5.577506497502327E-002,-1.718062162399292E-002,-6.830328702926636E-001,7.147553563117981E-001,
1.309133333333334E+009,3.430567681789398E-002,-1.665655709803104E-002,-6.614782810211182E-001,7.272591590881348E-001,3.430567681789398E-002,-1.665655709803104E-002,-6.614782810211182E-001,7.272591590881348E-001,
1.317500000000000E+009,1.847866177558899E-002,-5.331124644726515E-003,-6.447587609291077E-001,7.598004341125488E-001,1.847866177558899E-002,-5.331124644726515E-003,-6.447587609291077E-001,7.598004341125488E-001,
1.325866666666667E+009,1.255466509610415E-002,1.147339772433043E-002,-6.289710402488709E-001,7.744609117507935E-001,1.255466509610415E-002,1.147339772433043E-002,-6.289710402488709E-001,7.744609117507935E-001,
1.334233333333334E+009,1.955750770866871E-002,2.893409505486488E-002,-6.093059778213501E-001,7.814888358116150E-001,1.955750770866871E-002,2.893409505486488E-002,-6.093059778213501E-001,7.814888358116150E-001,
1.342600000000000E+009,3.543604910373688E-002,3.868631273508072E-002,-5.930061340332031E-001,8.013936281204224E-001,3.543604910373688E-002,3.868631273508072E-002,-5.930061340332031E-001,8.013936281204224E-001,
1.350966666666667E+009,5.605558678507805E-002,3.704233840107918E-002,-5.678117275238037E-001,8.109844326972961E-001,5.605558678507805E-002,3.704233840107918E-002,-5.678117275238037E-001,8.109844326972961E-001,
1.359333333333334E+009,7.236139476299286E-002,2.448491193354130E-002,-5.530219078063965E-001,8.107354640960693E-001,7.236139476299286E-002,2.448491193354130E-002,-5.530219078063965E-001,8.107354640960693E-001,
1.367700000000000E+009,7.935462146997452E-002,5.279161501675844E-003,-5.192935466766357E-001,8.312584161758423E-001,7.935462146997452E-002,5.279161501675844E-003,-5.192935466766357E-001,8.312584161758423E-001,
1.376066666666667E+009,7.625157386064529E-002,-1.671215333044529E-002,-5.051704645156860E-001,8.429845571517944E-001,7.625157386064529E-002,-1.671215333044529E-002,-5.051704645156860E-001,8.429845571517944E-001,
1.384433333333334E+009,5.981243774294853E-002,-3.232618793845177E-002,-4.909183084964752E-001,8.758580684661865E-001,5.981243774294853E-002,-3.232618793845177E-002,-4.909183084964752E-001,8.758580684661865E-001,
1.392800000000000E+009,3.809356316924095E-002,-3.510396182537079E-002,-4.698780477046967E-001,8.791037201881409E-001,3.809356316924095E-002,-3.510396182537079E-002,-4.698780477046967E-001,8.791037201881409E-001,
1.401166666666667E+009,1.645723357796669E-002,-2.770147286355496E-002,-4.425083696842194E-001,8.888319730758667E-001,1.645723357796669E-002,-2.770147286355496E-002,-4.425083696842194E-001,8.888319730758667E-001,
1.409533333333334E+009,1.866845879703760E-003,-1.015580445528030E-002,-4.137045741081238E-001,9.014407992362976E-001,1.866845879703760E-003,-1.015580445528030E-002,-4.137045741081238E-001,9.014407992362976E-001,
1.417900000000000E+009,4.025016387458891E-004,1.335348561406136E-002,-3.925456404685974E-001,8.965615630149841E-001,4.025016387458891E-004,1.335348561406136E-002,-3.925456404685974E-001,8.965615630149841E-001,
1.426266666666667E+009,1.018197368830442E-002,3.080513514578342E-002,-3.576115965843201E-001,9.275081753730774E-001,1.018197368830442E-002,3.080513514578342E-002,-3.576115965843201E-001,9.275081753730774E-001,
1.434633333333334E+009,2.995719760656357E-002,4.014848917722702E-002,-3.501561582088471E-001,9.214484095573425E-001,2.995719760656357E-002,4.014848917722702E-002,-3.501561582088471E-001,9.214484095573425E-001,
1.443000000000000E+009,5.107939615845680E-002,3.751223534345627E-002,-3.237489759922028E-001,9.306766390800476E-001,5.107939615845680E-002,3.751223534345627E-002,-3.237489759922028E-001,9.306766390800476E-001,
1.451366666666667E+009,6.906931102275848E-002,2.240957506000996E-002,-2.988793253898621E-001,9.334521293640137E-001,6.906931102275848E-002,2.240957506000996E-002,-2.988793253898621E-001,9.334521293640137E-001,
1.459733333333334E+009,7.678471505641937E-002,2.792321844026446E-003,-2.729051411151886E-001,9.590798020362854E-001,7.678471505641937E-002,2.792321844026446E-003,-2.729051411151886E-001,9.590798020362854E-001,
