% Version 1.00
%
%freq[Hz],re:Trc1_S11,im:Trc1_S11,re:Trc2_S21,im:Trc2_S21,re:Trc3_S11,im:Trc3_S11,re:Trc4_S21,im:Trc4_S21,
6.900000000000000E+008,-4.123912751674652E-002,3.004165552556515E-002,-4.935933649539948E-001,-8.572780489921570E-001,-4.123912751674652E-002,3.004165552556515E-002,-4.935933649539948E-001,-8.572780489921570E-001,
6.983666666666666E+008,-3.331252187490463E-002,3.054986149072647E-002,-5.187727212905884E-001,-8.469724059104919E-001,-3.331252187490463E-002,3.054986149072647E-002,-5.187727212905884E-001,-8.469724059104919E-001,
7.067333333333334E+008,-2.697289548814297E-002,2.608052827417851E-002,-5.417306423187256E-001,-8.214322924613953E-001,-2.697289548814297E-002,2.608052827417851E-002,-5.417306423187256E-001,-8.214322924613953E-001,
7.151000000000000E+008,-2.607703395187855E-002,1.835456304252148E-002,-5.764069557189941E-001,-8.192333579063416E-001,-2.607703395187855E-002,1.835456304252148E-002,-5.764069557189941E-001,-8.192333579063416E-001,
7.234666666666666E+008,-2.736259624361992E-002,1.294882688671351E-002,-5.897362232208252E-001,-8.038550019264221E-001,-2.736259624361992E-002,1.294882688671351E-002,-5.897362232208252E-001,-8.038550019264221E-001,
7.318333333333334E+008,-3.440177068114281E-002,1.033919490873814E-002,-6.071116328239441E-001,-7.871069312095642E-001,-3.440177068114281E-002,1.033919490873814E-002,-6.071116328239441E-001,-7.871069312095642E-001,
7.402000000000000E+008,-4.064762219786644E-002,1.177947502583265E-002,-6.178534030914307E-001,-7.623360753059387E-001,-4.064762219786644E-002,1.177947502583265E-002,-6.178534030914307E-001,-7.623360753059387E-001,
7.485666666666666E+008,-4.631225764751434E-002,1.823550090193749E-002,-6.478765010833740E-001,-7.497735023498535E-001,-4.631225764751434E-002,1.823550090193749E-002,-6.478765010833740E-001,-7.497735023498535E-001,
7.569333333333334E+008,-5.087072774767876E-002,2.754447795450687E-002,-6.664384007453919E-001,-7.364516854286194E-001,-5.087072774767876E-002,2.754447795450687E-002,-6.664384007453919E-001,-7.364516854286194E-001,
7.653000000000000E+008,-4.637806117534638E-002,3.620152175426483E-002,-6.741335391998291E-001,-7.173873782157898E-001,-4.637806117534638E-002,3.620152175426483E-002,-6.741335391998291E-001,-7.173873782157898E-001,
7.736666666666666E+008,-4.091794788837433E-002,4.268117621541023E-002,-6.871044635772705E-001,-7.140188217163086E-001,-4.091794788837433E-002,4.268117621541023E-002,-6.871044635772705E-001,-7.140188217163086E-001,
7.820333333333334E+008,-3.297235444188118E-002,4.657325521111488E-002,-7.211087346076965E-001,-6.859955191612244E-001,-3.297235444188118E-002,4.657325521111488E-002,-7.211087346076965E-001,-6.859955191612244E-001,
7.904000000000000E+008,-2.344334498047829E-002,4.532772675156593E-002,-7.302777171134949E-001,-6.673192381858826E-001,-2.344334498047829E-002,4.532772675156593E-002,-7.302777171134949E-001,-6.673192381858826E-001,
7.987666666666666E+008,-1.926866360008717E-002,3.977902606129646E-002,-7.357416152954102E-001,-6.514050364494324E-001,-1.926866360008717E-002,3.977902606129646E-002,-7.357416152954102E-001,-6.514050364494324E-001,
8.071333333333334E+008,-1.683982275426388E-002,3.291768208146095E-002,-7.620123624801636E-001,-6.199268698692322E-001,-1.683982275426388E-002,3.291768208146095E-002,-7.620123624801636E-001,-6.199268698692322E-001,
8.155000000000000E+008,-1.955743879079819E-002,2.570886537432671E-002,-7.885913848876953E-001,-6.092996001243591E-001,-1.955743879079819E-002,2.570886537432671E-002,-7.885913848876953E-001,-6.092996001243591E-001,
8.238666666666666E+008,-2.586252801120281E-002,2.335005812346935E-002,-7.949984669685364E-001,-5.859673619270325E-001,-2.586252801120281E-002,2.335005812346935E-002,-7.949984669685364E-001,-5.859673619270325E-001,
8.322333333333334E+008,-3.136109933257103E-002,2.437089569866657E-002,-8.042088150978088E-001,-5.684203505516052E-001,-3.136109933257103E-002,2.437089569866657E-002,-8.042088150978088E-001,-5.684203505516052E-001,
8.406000000000000E+008,-3.626721724867821E-002,2.738810703158379E-002,-8.163622021675110E-001,-5.462672710418701E-001,-3.626721724867821E-002,2.738810703158379E-002,-8.163622021675110E-001,-5.462672710418701E-001,
8.489666666666668E+008,-3.844099491834641E-002,3.834786266088486E-002,-8.285129070281982E-001,-5.172108411788940E-001,-3.844099491834641E-002,3.834786266088486E-002,-8.285129070281982E-001,-5.172108411788940E-001,
8.573333333333334E+008,-3.704330325126648E-002,4.621515050530434E-002,-8.307934403419495E-001,-4.870931506156921E-001,-3.704330325126648E-002,4.621515050530434E-002,-8.307934403419495E-001,-4.870931506156921E-001,
8.657000000000000E+008,-3.247354924678803E-002,5.404408648610115E-002,-8.586602807044983E-001,-4.919087588787079E-001,-3.247354924678803E-002,5.404408648610115E-002,-8.586602807044983E-001,-4.919087588787079E-001,
8.740666666666668E+008,-2.417819388210774E-002,5.908970534801483E-002,-8.647077679634094E-001,-4.671541154384613E-001,-2.417819388210774E-002,5.908970534801483E-002,-8.647077679634094E-001,-4.671541154384613E-001,
8.824333333333334E+008,-1.655856333673000E-002,6.041176989674568E-002,-8.833885788917542E-001,-4.431040585041046E-001,-1.655856333673000E-002,6.041176989674568E-002,-8.833885788917542E-001,-4.431040585041046E-001,
8.908000000000000E+008,-8.944011293351650E-003,5.665136501193047E-002,-8.969640135765076E-001,-4.258886873722076E-001,-8.944011293351650E-003,5.665136501193047E-002,-8.969640135765076E-001,-4.258886873722076E-001,
8.991666666666668E+008,-3.821042366325855E-003,5.045779794454575E-002,-8.973925709724426E-001,-3.989644944667816E-001,-3.821042366325855E-003,5.045779794454575E-002,-8.973925709724426E-001,-3.989644944667816E-001,
9.075333333333334E+008,-3.633254906162620E-003,4.246752709150314E-002,-9.116032719612122E-001,-3.739645183086395E-001,-3.633254906162620E-003,4.246752709150314E-002,-9.116032719612122E-001,-3.739645183086395E-001,
9.159000000000000E+008,-6.162252277135849E-003,3.637369349598885E-002,-9.330729842185974E-001,-3.497157692909241E-001,-6.162252277135849E-003,3.637369349598885E-002,-9.330729842185974E-001,-3.497157692909241E-001,
9.242666666666668E+008,-1.281606405973434E-002,3.619818761944771E-002,-9.247384667396545E-001,-3.277899920940399E-001,-1.281606405973434E-002,3.619818761944771E-002,-9.247384667396545E-001,-3.277899920940399E-001,
9.326333333333334E+008,-1.779178343713284E-002,3.813622891902924E-002,-9.408646821975708E-001,-3.140824735164642E-001,-1.779178343713284E-002,3.813622891902924E-002,-9.408646821975708E-001,-3.140824735164642E-001,
9.410000000000000E+008,-2.201743051409721E-002,4.234880581498146E-002,-9.516706466674805E-001,-2.784398794174194E-001,-2.201743051409721E-002,4.234880581498146E-002,-9.516706466674805E-001,-2.784398794174194E-001,
9.493666666666668E+008,-2.397369220852852E-002,5.157980322837830E-002,-9.567800760269165E-001,-2.481900751590729E-001,-2.397369220852852E-002,5.157980322837830E-002,-9.567800760269165E-001,-2.481900751590729E-001,
9.577333333333334E+008,-2.100169658660889E-002,6.133290007710457E-002,-9.632283449172974E-001,-2.349308878183365E-001,-2.100169658660889E-002,6.133290007710457E-002,-9.632283449172974E-001,-2.349308878183365E-001,
9.661000000000000E+008,-1.292556151747704E-002,6.809630244970322E-002,-9.651448726654053E-001,-1.930894255638123E-001,-1.292556151747704E-002,6.809630244970322E-002,-9.651448726654053E-001,-1.930894255638123E-001,
9.744666666666668E+008,-2.963187871500850E-003,6.869610399007797E-002,-9.631806015968323E-001,-1.823533922433853E-001,-2.963187871500850E-003,6.869610399007797E-002,-9.631806015968323E-001,-1.823533922433853E-001,
9.828333333333334E+008,5.450029857456684E-003,6.968608498573303E-002,-9.787396192550659E-001,-1.628512591123581E-001,5.450029857456684E-003,6.968608498573303E-002,-9.787396192550659E-001,-1.628512591123581E-001,
9.912000000000000E+008,1.532902009785175E-002,6.315810978412628E-002,-9.763841629028320E-001,-1.406457573175430E-001,1.532902009785175E-002,6.315810978412628E-002,-9.763841629028320E-001,-1.406457573175430E-001,
9.995666666666668E+008,1.871653273701668E-002,5.513925850391388E-002,-9.892445206642151E-001,-1.036789566278458E-001,1.871653273701668E-002,5.513925850391388E-002,-9.892445206642151E-001,-1.036789566278458E-001,
1.007933333333333E+009,2.208132110536099E-002,4.549691453576088E-002,-1.002355337142944E+000,-8.651967346668243E-002,2.208132110536099E-002,4.549691453576088E-002,-1.002355337142944E+000,-8.651967346668243E-002,
1.016300000000000E+009,1.607585139572620E-002,3.935352712869644E-002,-9.888805150985718E-001,-6.050145998597145E-002,1.607585139572620E-002,3.935352712869644E-002,-9.888805150985718E-001,-6.050145998597145E-002,
1.024666666666667E+009,8.769444189965725E-003,3.530471026897430E-002,-9.848508834838867E-001,-3.459659591317177E-002,8.769444189965725E-003,3.530471026897430E-002,-9.848508834838867E-001,-3.459659591317177E-002,
1.033033333333333E+009,3.926368430256844E-003,3.980668261647224E-002,-9.918149113655090E-001,-8.450859226286411E-003,3.926368430256844E-003,3.980668261647224E-002,-9.918149113655090E-001,-8.450859226286411E-003,
1.041400000000000E+009,-2.702919300645590E-003,4.473941773176193E-002,-9.918788671493530E-001,1.215669512748718E-002,-2.702919300645590E-003,4.473941773176193E-002,-9.918788671493530E-001,1.215669512748718E-002,
1.049766666666667E+009,-8.552829967811704E-006,5.443653091788292E-002,-9.781694412231445E-001,4.764226451516151E-002,-8.552829967811704E-006,5.443653091788292E-002,-9.781694412231445E-001,4.764226451516151E-002,
1.058133333333333E+009,3.599866991862655E-003,6.361094117164612E-002,-9.801679849624634E-001,6.961569935083389E-002,3.599866991862655E-003,6.361094117164612E-002,-9.801679849624634E-001,6.961569935083389E-002,
1.066500000000000E+009,1.399166043847799E-002,6.823923438787460E-002,-9.954344630241394E-001,1.033486053347588E-001,1.399166043847799E-002,6.823923438787460E-002,-9.954344630241394E-001,1.033486053347588E-001,
1.074866666666667E+009,2.655377425253391E-002,6.749753654003143E-002,-9.896731972694397E-001,1.238574385643005E-001,2.655377425253391E-002,6.749753654003143E-002,-9.896731972694397E-001,1.238574385643005E-001,
1.083233333333334E+009,3.445455804467201E-002,5.979981645941734E-002,-9.733193516731262E-001,1.445367932319641E-001,3.445455804467201E-002,5.979981645941734E-002,-9.733193516731262E-001,1.445367932319641E-001,
1.091600000000000E+009,4.042527824640274E-002,4.941041767597199E-002,-9.561321735382080E-001,1.645418256521225E-001,4.042527824640274E-002,4.941041767597199E-002,-9.561321735382080E-001,1.645418256521225E-001,
1.099966666666667E+009,3.948661312460899E-002,3.582523390650749E-002,-9.516431689262390E-001,2.024632394313812E-001,3.948661312460899E-002,3.582523390650749E-002,-9.516431689262390E-001,2.024632394313812E-001,
1.108333333333334E+009,3.154959529638290E-002,2.744748815894127E-002,-9.513668417930603E-001,2.101286053657532E-001,3.154959529638290E-002,2.744748815894127E-002,-9.513668417930603E-001,2.101286053657532E-001,
1.116700000000000E+009,2.140261605381966E-002,2.355015464127064E-002,-9.450601935386658E-001,2.436546981334686E-001,2.140261605381966E-002,2.355015464127064E-002,-9.450601935386658E-001,2.436546981334686E-001,
1.125066666666667E+009,1.046702917665243E-002,2.749011851847172E-002,-9.461842775344849E-001,2.602263987064362E-001,1.046702917665243E-002,2.749011851847172E-002,-9.461842775344849E-001,2.602263987064362E-001,
1.133433333333334E+009,2.703194972127676E-003,3.681624680757523E-002,-9.444151520729065E-001,3.048383295536041E-001,2.703194972127676E-003,3.681624680757523E-002,-9.444151520729065E-001,3.048383295536041E-001,
1.141800000000000E+009,1.095964107662439E-003,5.004715546965599E-002,-9.219172596931458E-001,3.193345069885254E-001,1.095964107662439E-003,5.004715546965599E-002,-9.219172596931458E-001,3.193345069885254E-001,
1.150166666666667E+009,9.559086523950100E-003,6.464188545942307E-002,-9.134600758552551E-001,3.203319311141968E-001,9.559086523950100E-003,6.464188545942307E-002,-9.134600758552551E-001,3.203319311141968E-001,
1.158533333333334E+009,2.453277073800564E-002,7.225688546895981E-002,-9.069848060607910E-001,3.611556887626648E-001,2.453277073800564E-002,7.225688546895981E-002,-9.069848060607910E-001,3.611556887626648E-001,
1.166900000000000E+009,4.283484444022179E-002,7.318196445703507E-002,-8.907561898231506E-001,3.814709782600403E-001,4.283484444022179E-002,7.318196445703507E-002,-8.907561898231506E-001,3.814709782600403E-001,
1.175266666666667E+009,5.809652060270309E-002,6.334133446216583E-002,-8.854685425758362E-001,4.108142256736755E-001,5.809652060270309E-002,6.334133446216583E-002,-8.854685425758362E-001,4.108142256736755E-001,
1.183633333333334E+009,6.950087100267410E-002,4.937578365206718E-002,-8.839649558067322E-001,4.229649305343628E-001,6.950087100267410E-002,4.937578365206718E-002,-8.839649558067322E-001,4.229649305343628E-001,
1.192000000000000E+009,6.935857236385346E-002,3.102080523967743E-002,-8.712881803512573E-001,4.458285570144653E-001,6.935857236385346E-002,3.102080523967743E-002,-8.712881803512573E-001,4.458285570144653E-001,
1.200366666666667E+009,6.014803051948547E-002,1.440561935305595E-002,-8.585285544395447E-001,4.668029844760895E-001,6.014803051948547E-002,1.440561935305595E-002,-8.585285544395447E-001,4.668029844760895E-001,
1.208733333333334E+009,4.551815614104271E-002,5.079774186015129E-003,-8.524402976036072E-001,5.086653828620911E-001,4.551815614104271E-002,5.079774186015129E-003,-8.524402976036072E-001,5.086653828620911E-001,
1.217100000000000E+009,2.979017049074173E-002,5.614504683762789E-003,-8.486078381538391E-001,5.177568793296814E-001,2.979017049074173E-002,5.614504683762789E-003,-8.486078381538391E-001,5.177568793296814E-001,
1.225466666666667E+009,1.723453029990196E-002,1.551200076937676E-002,-8.168948888778687E-001,5.425020456314087E-001,1.723453029990196E-002,1.551200076937676E-002,-8.168948888778687E-001,5.425020456314087E-001,
1.233833333333334E+009,1.243145484477282E-002,3.168098255991936E-002,-8.124951124191284E-001,5.535783171653748E-001,1.243145484477282E-002,3.168098255991936E-002,-8.124951124191284E-001,5.535783171653748E-001,
1.242200000000000E+009,2.025410719215870E-002,4.623533412814140E-002,-7.881644368171692E-001,5.871374011039734E-001,2.025410719215870E-002,4.623533412814140E-002,-7.881644368171692E-001,5.871374011039734E-001,
1.250566666666667E+009,3.279211744666100E-002,5.706289038062096E-002,-7.669777870178223E-001,5.933299660682678E-001,3.279211744666100E-002,5.706289038062096E-002,-7.669777870178223E-001,5.933299660682678E-001,
1.258933333333334E+009,5.304227769374847E-002,5.828746780753136E-002,-7.621258497238159E-001,6.159690618515015E-001,5.304227769374847E-002,5.828746780753136E-002,-7.621258497238159E-001,6.159690618515015E-001,
1.267300000000000E+009,7.222283631563187E-002,4.881058633327484E-002,-7.435593008995056E-001,6.305558085441589E-001,7.222283631563187E-002,4.881058633327484E-002,-7.435593008995056E-001,6.305558085441589E-001,
1.275666666666667E+009,8.131891489028931E-002,3.170663490891457E-002,-7.309486865997315E-001,6.388441920280457E-001,8.131891489028931E-002,3.170663490891457E-002,-7.309486865997315E-001,6.388441920280457E-001,
1.284033333333334E+009,8.359658718109131E-002,1.120667811483145E-002,-7.151234149932861E-001,6.812607049942017E-001,8.359658718109131E-002,1.120667811483145E-002,-7.151234149932861E-001,6.812607049942017E-001,
1.292400000000000E+009,7.332009077072144E-002,-7.535158190876246E-003,-7.027258276939392E-001,6.844799518585205E-001,7.332009077072144E-002,-7.535158190876246E-003,-7.027258276939392E-001,6.844799518585205E-001,
1.300766666666667E+009,5.396616458892822E-002,-1.655422151088715E-002,-6.806857585906982E-001,7.086590528488159E-001,5.396616458892822E-002,-1.655422151088715E-002,-6.806857585906982E-001,7.086590528488159E-001,
1.309133333333334E+009,3.349146991968155E-002,-1.588603667914867E-002,-6.562418341636658E-001,7.228859663009644E-001,3.349146991968155E-002,-1.588603667914867E-002,-6.562418341636658E-001,7.228859663009644E-001,
1.317500000000000E+009,1.857454329729080E-002,-4.832954145967960E-003,-6.444503664970398E-001,7.533552646636963E-001,1.857454329729080E-002,-4.832954145967960E-003,-6.444503664970398E-001,7.533552646636963E-001,
1.325866666666667E+009,1.321782544255257E-002,1.155900396406651E-002,-6.254974603652954E-001,7.684909701347351E-001,1.321782544255257E-002,1.155900396406651E-002,-6.254974603652954E-001,7.684909701347351E-001,
1.334233333333334E+009,2.069846726953983E-002,2.933196909725666E-002,-6.074009537696838E-001,7.744218111038208E-001,2.069846726953983E-002,2.933196909725666E-002,-6.074009537696838E-001,7.744218111038208E-001,
1.342600000000000E+009,3.585531935095787E-002,3.903366252779961E-002,-5.904953479766846E-001,7.918443679809570E-001,3.585531935095787E-002,3.903366252779961E-002,-5.904953479766846E-001,7.918443679809570E-001,
1.350966666666667E+009,5.594113096594811E-002,3.738842532038689E-002,-5.645762681961060E-001,8.050134778022766E-001,5.594113096594811E-002,3.738842532038689E-002,-5.645762681961060E-001,8.050134778022766E-001,
1.359333333333334E+009,7.123921811580658E-002,2.503999508917332E-002,-5.512692928314209E-001,8.046347498893738E-001,7.123921811580658E-002,2.503999508917332E-002,-5.512692928314209E-001,8.046347498893738E-001,
1.367700000000000E+009,7.773522287607193E-002,6.255376152694225E-003,-5.176612138748169E-001,8.240314722061157E-001,7.773522287607193E-002,6.255376152694225E-003,-5.176612138748169E-001,8.240314722061157E-001,
1.376066666666667E+009,7.439179718494415E-002,-1.523369457572699E-002,-5.024117231369019E-001,8.334889411926270E-001,7.439179718494415E-002,-1.523369457572699E-002,-5.024117231369019E-001,8.334889411926270E-001,
1.384433333333334E+009,5.752830579876900E-002,-3.069074079394341E-002,-4.874198436737061E-001,8.640022873878479E-001,5.752830579876900E-002,-3.069074079394341E-002,-4.874198436737061E-001,8.640022873878479E-001,
1.392800000000000E+009,3.661064431071281E-002,-3.364650160074234E-002,-4.664748609066010E-001,8.721338510513306E-001,3.661064431071281E-002,-3.364650160074234E-002,-4.664748609066010E-001,8.721338510513306E-001,
1.401166666666667E+009,1.534339971840382E-002,-2.699507027864456E-002,-4.398177862167358E-001,8.792306780815125E-001,1.534339971840382E-002,-2.699507027864456E-002,-4.398177862167358E-001,8.792306780815125E-001,
1.409533333333334E+009,1.138648367486894E-003,-9.909833781421185E-003,-4.113992452621460E-001,8.937708735466003E-001,1.138648367486894E-003,-9.909833781421185E-003,-4.113992452621460E-001,8.937708735466003E-001,
1.417900000000000E+009,6.284029223024845E-004,1.300278864800930E-002,-3.926054537296295E-001,8.898937106132507E-001,6.284029223024845E-004,1.300278864800930E-002,-3.926054537296295E-001,8.898937106132507E-001,
1.426266666666667E+009,1.045476552098990E-002,3.011998534202576E-002,-3.565259873867035E-001,9.168632030487061E-001,1.045476552098990E-002,3.011998534202576E-002,-3.565259873867035E-001,9.168632030487061E-001,
1.434633333333334E+009,3.068159893155098E-002,3.935829550027847E-002,-3.471407890319824E-001,9.114636182785034E-001,3.068159893155098E-002,3.935829550027847E-002,-3.471407890319824E-001,9.114636182785034E-001,
1.443000000000000E+009,5.147675797343254E-002,3.770466521382332E-002,-3.233571350574493E-001,9.199324846267700E-001,5.147675797343254E-002,3.770466521382332E-002,-3.233571350574493E-001,9.199324846267700E-001,
1.451366666666667E+009,6.833864748477936E-002,2.326673269271851E-002,-2.972395420074463E-001,9.210022091865540E-001,6.833864748477936E-002,2.326673269271851E-002,-2.972395420074463E-001,9.210022091865540E-001,
1.459733333333334E+009,7.611411809921265E-002,3.873189445585012E-003,-2.722486555576325E-001,9.480115771293640E-001,7.611411809921265E-002,3.873189445585012E-003,-2.722486555576325E-001,9.480115771293640E-001,
