% Version 1.00
%
%freq[Hz],re:Trc1_S11,im:Trc1_S11,re:Trc2_S21,im:Trc2_S21,re:Trc3_S11,im:Trc3_S11,re:Trc4_S21,im:Trc4_S21,
6.900000000000000E+008,-5.356252938508987E-002,3.866167366504669E-002,-5.057910680770874E-001,-8.493155241012573E-001,-5.356252938508987E-002,3.866167366504669E-002,-5.057910680770874E-001,-8.493155241012573E-001,
6.983666666666666E+008,-4.552469030022621E-002,3.915944695472717E-002,-5.313847064971924E-001,-8.385907411575317E-001,-4.552469030022621E-002,3.915944695472717E-002,-5.313847064971924E-001,-8.385907411575317E-001,
7.067333333333334E+008,-3.937544673681259E-002,3.474637120962143E-002,-5.538349747657776E-001,-8.126397728919983E-001,-3.937544673681259E-002,3.474637120962143E-002,-5.538349747657776E-001,-8.126397728919983E-001,
7.151000000000000E+008,-3.844012692570686E-002,2.745699323713779E-002,-5.889521837234497E-001,-8.103163242340088E-001,-3.844012692570686E-002,2.745699323713779E-002,-5.889521837234497E-001,-8.103163242340088E-001,
7.234666666666666E+008,-3.984003886580467E-002,2.260881476104260E-002,-6.021325588226318E-001,-7.946987748146057E-001,-3.984003886580467E-002,2.260881476104260E-002,-6.021325588226318E-001,-7.946987748146057E-001,
7.318333333333334E+008,-4.664850980043411E-002,2.071633562445641E-002,-6.197159290313721E-001,-7.771368026733398E-001,-4.664850980043411E-002,2.071633562445641E-002,-6.197159290313721E-001,-7.771368026733398E-001,
7.402000000000000E+008,-5.253261700272560E-002,2.305939234793186E-002,-6.300781369209290E-001,-7.519382834434509E-001,-5.253261700272560E-002,2.305939234793186E-002,-6.300781369209290E-001,-7.519382834434509E-001,
7.485666666666666E+008,-5.785500630736351E-002,3.038742206990719E-002,-6.599785685539246E-001,-7.385323643684387E-001,-5.785500630736351E-002,3.038742206990719E-002,-6.599785685539246E-001,-7.385323643684387E-001,
7.569333333333334E+008,-6.201080605387688E-002,4.034886136651039E-002,-6.783884167671204E-001,-7.254104614257813E-001,-6.201080605387688E-002,4.034886136651039E-002,-6.783884167671204E-001,-7.254104614257813E-001,
7.653000000000000E+008,-5.712484568357468E-002,4.929817095398903E-002,-6.858887076377869E-001,-7.060933113098145E-001,-5.712484568357468E-002,4.929817095398903E-002,-6.858887076377869E-001,-7.060933113098145E-001,
7.736666666666666E+008,-5.150075629353523E-002,5.596852302551270E-002,-6.986225843429565E-001,-7.022650241851807E-001,-5.150075629353523E-002,5.596852302551270E-002,-6.986225843429565E-001,-7.022650241851807E-001,
7.820333333333334E+008,-4.342145845293999E-002,5.993380025029182E-002,-7.320230007171631E-001,-6.737397313117981E-001,-4.342145845293999E-002,5.993380025029182E-002,-7.320230007171631E-001,-6.737397313117981E-001,
7.904000000000000E+008,-3.384741395711899E-002,5.873814970254898E-002,-7.411082386970520E-001,-6.549530029296875E-001,-3.384741395711899E-002,5.873814970254898E-002,-7.411082386970520E-001,-6.549530029296875E-001,
7.987666666666666E+008,-2.957166917622089E-002,5.349787324666977E-002,-7.463531494140625E-001,-6.390629410743713E-001,-2.957166917622089E-002,5.349787324666977E-002,-7.463531494140625E-001,-6.390629410743713E-001,
8.071333333333334E+008,-2.745419740676880E-002,4.690551385283470E-002,-7.730087041854858E-001,-6.070602536201477E-001,-2.745419740676880E-002,4.690551385283470E-002,-7.730087041854858E-001,-6.070602536201477E-001,
8.155000000000000E+008,-2.973559871315956E-002,3.986439481377602E-002,-7.995548844337463E-001,-5.955122709274292E-001,-2.973559871315956E-002,3.986439481377602E-002,-7.995548844337463E-001,-5.955122709274292E-001,
8.238666666666666E+008,-3.585673868656158E-002,3.809856623411179E-002,-8.054732084274292E-001,-5.719224810600281E-001,-3.585673868656158E-002,3.809856623411179E-002,-8.054732084274292E-001,-5.719224810600281E-001,
8.322333333333334E+008,-4.079951718449593E-002,4.003765434026718E-002,-8.148553371429443E-001,-5.536543130874634E-001,-4.079951718449593E-002,4.003765434026718E-002,-8.148553371429443E-001,-5.536543130874634E-001,
8.406000000000000E+008,-4.483082517981529E-002,4.367897287011147E-002,-8.266468048095703E-001,-5.310950875282288E-001,-4.483082517981529E-002,4.367897287011147E-002,-8.266468048095703E-001,-5.310950875282288E-001,
8.489666666666668E+008,-4.634827375411987E-002,5.516256019473076E-002,-8.382685780525208E-001,-5.016856789588928E-001,-4.634827375411987E-002,5.516256019473076E-002,-8.382685780525208E-001,-5.016856789588928E-001,
8.573333333333334E+008,-4.445597529411316E-002,6.347281485795975E-002,-8.399401307106018E-001,-4.712453484535217E-001,-4.445597529411316E-002,6.347281485795975E-002,-8.399401307106018E-001,-4.712453484535217E-001,
8.657000000000000E+008,-3.945666179060936E-002,7.138213515281677E-002,-8.677869439125061E-001,-4.752042591571808E-001,-3.945666179060936E-002,7.138213515281677E-002,-8.677869439125061E-001,-4.752042591571808E-001,
8.740666666666668E+008,-3.082460910081863E-002,7.671286910772324E-002,-8.737078905105591E-001,-4.506056606769562E-001,-3.082460910081863E-002,7.671286910772324E-002,-8.737078905105591E-001,-4.506056606769562E-001,
8.824333333333334E+008,-2.320044115185738E-002,7.817906141281128E-002,-8.917875289916992E-001,-4.261377155780792E-001,-2.320044115185738E-002,7.817906141281128E-002,-8.917875289916992E-001,-4.261377155780792E-001,
8.908000000000000E+008,-1.546209864318371E-002,7.449582219123840E-002,-9.055093526840210E-001,-4.085360467433929E-001,-1.546209864318371E-002,7.449582219123840E-002,-9.055093526840210E-001,-4.085360467433929E-001,
8.991666666666668E+008,-1.006726827472448E-002,6.827580928802490E-002,-9.055681228637695E-001,-3.811495006084442E-001,-1.006726827472448E-002,6.827580928802490E-002,-9.055681228637695E-001,-3.811495006084442E-001,
9.075333333333334E+008,-9.547992609441280E-003,6.066223978996277E-002,-9.196909070014954E-001,-3.557085394859314E-001,-9.547992609441280E-003,6.066223978996277E-002,-9.196909070014954E-001,-3.557085394859314E-001,
9.159000000000000E+008,-1.203237846493721E-002,5.468856915831566E-002,-9.405194520950317E-001,-3.306142091751099E-001,-1.203237846493721E-002,5.468856915831566E-002,-9.405194520950317E-001,-3.306142091751099E-001,
9.242666666666668E+008,-1.808862574398518E-002,5.497056245803833E-002,-9.316298365592957E-001,-3.085863590240479E-001,-1.808862574398518E-002,5.497056245803833E-002,-9.316298365592957E-001,-3.085863590240479E-001,
9.326333333333334E+008,-2.247401140630245E-002,5.745282396674156E-002,-9.479555487632752E-001,-2.941105067729950E-001,-2.247401140630245E-002,5.745282396674156E-002,-9.479555487632752E-001,-2.941105067729950E-001,
9.410000000000000E+008,-2.590469084680080E-002,6.217014417052269E-002,-9.576144814491272E-001,-2.581237256526947E-001,-2.590469084680080E-002,6.217014417052269E-002,-9.576144814491272E-001,-2.581237256526947E-001,
9.493666666666668E+008,-2.692992798984051E-002,7.193388044834137E-002,-9.618865251541138E-001,-2.275273650884628E-001,-2.692992798984051E-002,7.193388044834137E-002,-9.618865251541138E-001,-2.275273650884628E-001,
9.577333333333334E+008,-2.319755405187607E-002,8.231716603040695E-002,-9.676166176795960E-001,-2.142474800348282E-001,-2.319755405187607E-002,8.231716603040695E-002,-9.676166176795960E-001,-2.142474800348282E-001,
9.661000000000000E+008,-1.464629359543324E-002,8.936746418476105E-002,-9.689060449600220E-001,-1.720878779888153E-001,-1.464629359543324E-002,8.936746418476105E-002,-9.689060449600220E-001,-1.720878779888153E-001,
9.744666666666668E+008,-4.168066196143627E-003,8.975659310817719E-002,-9.663307666778565E-001,-1.618431806564331E-001,-4.168066196143627E-003,8.975659310817719E-002,-9.663307666778565E-001,-1.618431806564331E-001,
9.828333333333334E+008,4.556960426270962E-003,9.095168113708496E-002,-9.818050265312195E-001,-1.421113610267639E-001,4.556960426270962E-003,9.095168113708496E-002,-9.818050265312195E-001,-1.421113610267639E-001,
9.912000000000000E+008,1.466590259224176E-002,8.433865755796433E-002,-9.789909720420837E-001,-1.200151070952416E-001,1.466590259224176E-002,8.433865755796433E-002,-9.789909720420837E-001,-1.200151070952416E-001,
9.995666666666668E+008,1.820686273276806E-002,7.630205899477005E-002,-9.910848736763001E-001,-8.293473720550537E-002,1.820686273276806E-002,7.630205899477005E-002,-9.910848736763001E-001,-8.293473720550537E-002,
1.007933333333333E+009,2.205031178891659E-002,6.659507751464844E-002,-1.004641056060791E+000,-6.513324379920960E-002,2.205031178891659E-002,6.659507751464844E-002,-1.004641056060791E+000,-6.513324379920960E-002,
1.016300000000000E+009,1.654872111976147E-002,6.042291224002838E-002,-9.907637238502502E-001,-3.891460224986076E-002,1.654872111976147E-002,6.042291224002838E-002,-9.907637238502502E-001,-3.891460224986076E-002,
1.024666666666667E+009,9.580301120877266E-003,5.657217651605606E-002,-9.861984252929688E-001,-1.267650350928307E-002,9.580301120877266E-003,5.657217651605606E-002,-9.861984252929688E-001,-1.267650350928307E-002,
1.033033333333333E+009,5.556056275963783E-003,6.136082112789154E-002,-9.926199316978455E-001,1.378458272665739E-002,5.556056275963783E-003,6.136082112789154E-002,-9.926199316978455E-001,1.378458272665739E-002,
1.041400000000000E+009,-2.397052303422242E-004,6.652476638555527E-002,-9.919331073760986E-001,3.475687652826309E-002,-2.397052303422242E-004,6.652476638555527E-002,-9.919331073760986E-001,3.475687652826309E-002,
1.049766666666667E+009,3.597836941480637E-003,7.622151821851730E-002,-9.772561192512512E-001,7.056672126054764E-002,3.597836941480637E-003,7.622151821851730E-002,-9.772561192512512E-001,7.056672126054764E-002,
1.058133333333333E+009,8.061088621616364E-003,8.581491559743881E-002,-9.787179827690125E-001,9.240470081567764E-002,8.061088621616364E-003,8.581491559743881E-002,-9.787179827690125E-001,9.240470081567764E-002,
1.066500000000000E+009,1.916001923382282E-002,9.037425369024277E-002,-9.932069778442383E-001,1.268463730812073E-001,1.916001923382282E-002,9.037425369024277E-002,-9.932069778442383E-001,1.268463730812073E-001,
1.074866666666667E+009,3.236725553870201E-002,8.943808823823929E-002,-9.866034388542175E-001,1.467986106872559E-001,3.236725553870201E-002,8.943808823823929E-002,-9.866034388542175E-001,1.467986106872559E-001,
1.083233333333334E+009,4.042951390147209E-002,8.161958307027817E-002,-9.699320793151856E-001,1.673548370599747E-001,4.042951390147209E-002,8.161958307027817E-002,-9.699320793151856E-001,1.673548370599747E-001,
1.091600000000000E+009,4.655348137021065E-002,7.108137011528015E-002,-9.526656270027161E-001,1.869933754205704E-001,4.655348137021065E-002,7.108137011528015E-002,-9.526656270027161E-001,1.869933754205704E-001,
1.099966666666667E+009,4.541198909282684E-002,5.741370841860771E-002,-9.474678635597229E-001,2.254229187965393E-001,4.541198909282684E-002,5.741370841860771E-002,-9.474678635597229E-001,2.254229187965393E-001,
1.108333333333334E+009,3.747433423995972E-002,4.924108833074570E-002,-9.475523233413696E-001,2.332702428102493E-001,3.747433423995972E-002,4.924108833074570E-002,-9.475523233413696E-001,2.332702428102493E-001,
1.116700000000000E+009,2.763313241302967E-002,4.562292993068695E-002,-9.399589896202087E-001,2.671037614345551E-001,2.763313241302967E-002,4.562292993068695E-002,-9.399589896202087E-001,2.671037614345551E-001,
1.125066666666667E+009,1.755657233297825E-002,4.991633072495461E-002,-9.403218626976013E-001,2.839080393314362E-001,1.755657233297825E-002,4.991633072495461E-002,-9.403218626976013E-001,2.839080393314362E-001,
1.133433333333334E+009,1.089614629745483E-002,5.936492234468460E-002,-9.369505047798157E-001,3.289712667465210E-001,1.089614629745483E-002,5.936492234468460E-002,-9.369505047798157E-001,3.289712667465210E-001,
1.141800000000000E+009,1.070828177034855E-002,7.272163778543472E-002,-9.136676788330078E-001,3.431467413902283E-001,1.070828177034855E-002,7.272163778543472E-002,-9.136676788330078E-001,3.431467413902283E-001,
1.150166666666667E+009,2.048571594059467E-002,8.691144734621048E-002,-9.049029350280762E-001,3.432976305484772E-001,2.048571594059467E-002,8.691144734621048E-002,-9.049029350280762E-001,3.432976305484772E-001,
1.158533333333334E+009,3.689300641417503E-002,9.419354051351547E-002,-8.969237208366394E-001,3.837337195873261E-001,3.689300641417503E-002,9.419354051351547E-002,-8.969237208366394E-001,3.837337195873261E-001,
1.166900000000000E+009,5.613390728831291E-002,9.435306489467621E-002,-8.805223703384399E-001,4.038368463516235E-001,5.613390728831291E-002,9.435306489467621E-002,-8.805223703384399E-001,4.038368463516235E-001,
1.175266666666667E+009,7.147146016359329E-002,8.382161706686020E-002,-8.745875954627991E-001,4.326622188091278E-001,7.147146016359329E-002,8.382161706686020E-002,-8.745875954627991E-001,4.326622188091278E-001,
1.183633333333334E+009,8.281708508729935E-002,6.934376060962677E-002,-8.728481531143189E-001,4.448321759700775E-001,8.281708508729935E-002,6.934376060962677E-002,-8.728481531143189E-001,4.448321759700775E-001,
1.192000000000000E+009,8.225388824939728E-002,5.074252560734749E-002,-8.600203990936279E-001,4.673748314380646E-001,8.225388824939728E-002,5.074252560734749E-002,-8.600203990936279E-001,4.673748314380646E-001,
1.200366666666667E+009,7.257330417633057E-002,3.428710252046585E-002,-8.471807241439819E-001,4.885204434394836E-001,7.257330417633057E-002,3.428710252046585E-002,-8.471807241439819E-001,4.885204434394836E-001,
1.208733333333334E+009,5.795262008905411E-002,2.527378872036934E-002,-8.401222229003906E-001,5.306109189987183E-001,5.795262008905411E-002,2.527378872036934E-002,-8.401222229003906E-001,5.306109189987183E-001,
1.217100000000000E+009,4.269643500447273E-002,2.589603699743748E-002,-8.357261419296265E-001,5.407987833023071E-001,4.269643500447273E-002,2.589603699743748E-002,-8.357261419296265E-001,5.407987833023071E-001,
1.225466666666667E+009,3.115736320614815E-002,3.643974661827087E-002,-8.028017282485962E-001,5.649542808532715E-001,3.115736320614815E-002,3.643974661827087E-002,-8.028017282485962E-001,5.649542808532715E-001,
1.233833333333334E+009,2.774705737829208E-002,5.250330641865730E-002,-7.974079847335815E-001,5.763382315635681E-001,2.774705737829208E-002,5.250330641865730E-002,-7.974079847335815E-001,5.763382315635681E-001,
1.242200000000000E+009,3.717829287052155E-002,6.647399812936783E-002,-7.718451023101807E-001,6.092594265937805E-001,3.717829287052155E-002,6.647399812936783E-002,-7.718451023101807E-001,6.092594265937805E-001,
1.250566666666667E+009,5.128226801753044E-002,7.644893974065781E-002,-7.500000596046448E-001,6.144545674324036E-001,5.128226801753044E-002,7.644893974065781E-002,-7.500000596046448E-001,6.144545674324036E-001,
1.258933333333334E+009,7.221098989248276E-002,7.654320448637009E-002,-7.441415190696716E-001,6.360630989074707E-001,7.221098989248276E-002,7.654320448637009E-002,-7.441415190696716E-001,6.360630989074707E-001,
1.267300000000000E+009,9.204267710447311E-002,6.600757688283920E-002,-7.254872918128967E-001,6.499784588813782E-001,9.204267710447311E-002,6.600757688283920E-002,-7.254872918128967E-001,6.499784588813782E-001,
1.275666666666667E+009,1.009434536099434E-001,4.836693778634071E-002,-7.132228612899780E-001,6.579763889312744E-001,1.009434536099434E-001,4.836693778634071E-002,-7.132228612899780E-001,6.579763889312744E-001,
1.284033333333334E+009,1.026935502886772E-001,2.749088406562805E-002,-6.966698765754700E-001,6.999878883361816E-001,1.026935502886772E-001,2.749088406562805E-002,-6.966698765754700E-001,6.999878883361816E-001,
1.292400000000000E+009,9.200863540172577E-002,9.072819724678993E-003,-6.846370697021484E-001,7.034494280815125E-001,9.200863540172577E-002,9.072819724678993E-003,-6.846370697021484E-001,7.034494280815125E-001,
1.300766666666667E+009,7.245855778455734E-002,4.976642667315900E-004,-6.619141697883606E-001,7.276951670646668E-001,7.245855778455734E-002,4.976642667315900E-004,-6.619141697883606E-001,7.276951670646668E-001,
1.309133333333334E+009,5.239724367856979E-002,1.567524159327149E-003,-6.371077895164490E-001,7.417420744895935E-001,5.239724367856979E-002,1.567524159327149E-003,-6.371077895164490E-001,7.417420744895935E-001,
1.317500000000000E+009,3.826287016272545E-002,1.295143552124500E-002,-6.234279274940491E-001,7.721282243728638E-001,3.826287016272545E-002,1.295143552124500E-002,-6.234279274940491E-001,7.721282243728638E-001,
1.325866666666667E+009,3.435669839382172E-002,2.927851118147373E-002,-6.035478711128235E-001,7.868044972419739E-001,3.435669839382172E-002,2.927851118147373E-002,-6.035478711128235E-001,7.868044972419739E-001,
1.334233333333334E+009,4.349755123257637E-002,4.612532258033752E-002,-5.849286913871765E-001,7.924155592918396E-001,4.349755123257637E-002,4.612532258033752E-002,-5.849286913871765E-001,7.924155592918396E-001,
1.342600000000000E+009,5.996884405612946E-002,5.448734015226364E-002,-5.670247673988342E-001,8.093422055244446E-001,5.996884405612946E-002,5.448734015226364E-002,-5.670247673988342E-001,8.093422055244446E-001,
1.350966666666667E+009,8.100853115320206E-002,5.122486501932144E-002,-5.404688715934753E-001,8.208968043327332E-001,8.100853115320206E-002,5.122486501932144E-002,-5.404688715934753E-001,8.208968043327332E-001,
1.359333333333334E+009,9.651673585176468E-002,3.765954822301865E-002,-5.273448228836060E-001,8.202170133590698E-001,9.651673585176468E-002,3.765954822301865E-002,-5.273448228836060E-001,8.202170133590698E-001,
1.367700000000000E+009,1.026398167014122E-001,1.804979145526886E-002,-4.940619468688965E-001,8.384221792221069E-001,1.026398167014122E-001,1.804979145526886E-002,-4.940619468688965E-001,8.384221792221069E-001,
1.376066666666667E+009,9.898711740970612E-002,-3.933027852326632E-003,-4.787700474262238E-001,8.477119207382202E-001,9.898711740970612E-002,-3.933027852326632E-003,-4.787700474262238E-001,8.477119207382202E-001,
1.384433333333334E+009,8.167743682861328E-002,-1.887829974293709E-002,-4.632581174373627E-001,8.783481717109680E-001,8.167743682861328E-002,-1.887829974293709E-002,-4.632581174373627E-001,8.783481717109680E-001,
1.392800000000000E+009,6.072280928492546E-002,-2.107575722038746E-002,-4.422775804996491E-001,8.864185214042664E-001,6.072280928492546E-002,-2.107575722038746E-002,-4.422775804996491E-001,8.864185214042664E-001,
1.401166666666667E+009,4.007093980908394E-002,-1.366339158266783E-002,-4.151147305965424E-001,8.937184214591980E-001,4.007093980908394E-002,-1.366339158266783E-002,-4.151147305965424E-001,8.937184214591980E-001,
1.409533333333334E+009,2.665088512003422E-002,3.079287940636277E-003,-3.851560652256012E-001,9.080217480659485E-001,2.665088512003422E-002,3.079287940636277E-003,-3.851560652256012E-001,9.080217480659485E-001,
1.417900000000000E+009,2.791515924036503E-002,2.575842849910259E-002,-3.656167984008789E-001,9.035623073577881E-001,2.791515924036503E-002,2.575842849910259E-002,-3.656167984008789E-001,9.035623073577881E-001,
1.426266666666667E+009,3.922073170542717E-002,4.173298925161362E-002,-3.278479278087616E-001,9.293378591537476E-001,3.922073170542717E-002,4.173298925161362E-002,-3.278479278087616E-001,9.293378591537476E-001,
1.434633333333334E+009,6.039386242628098E-002,4.896805062890053E-002,-3.184928297996521E-001,9.228663444519043E-001,6.039386242628098E-002,4.896805062890053E-002,-3.184928297996521E-001,9.228663444519043E-001,
1.443000000000000E+009,8.166509121656418E-002,4.524163901805878E-002,-2.938548326492310E-001,9.301934838294983E-001,8.166509121656418E-002,4.524163901805878E-002,-2.938548326492310E-001,9.301934838294983E-001,
1.451366666666667E+009,9.825094789266586E-002,2.901774272322655E-002,-2.681931555271149E-001,9.300267100334168E-001,9.825094789266586E-002,2.901774272322655E-002,-2.681931555271149E-001,9.300267100334168E-001,
1.459733333333334E+009,1.052797585725784E-001,8.467331528663635E-003,-2.425010353326798E-001,9.564242959022522E-001,1.052797585725784E-001,8.467331528663635E-003,-2.425010353326798E-001,9.564242959022522E-001,
