% Version 1.00
%
%freq[Hz],re:Trc1_S11,im:Trc1_S11,re:Trc2_S21,im:Trc2_S21,re:Trc3_S11,im:Trc3_S11,re:Trc4_S21,im:Trc4_S21,
6.900000000000000E+008,-5.523739755153656E-002,4.490304365754128E-002,-5.105621814727783E-001,-8.465701937675476E-001,-5.523739755153656E-002,4.490304365754128E-002,-5.105621814727783E-001,-8.465701937675476E-001,
6.983666666666666E+008,-4.694554582238197E-002,4.521635547280312E-002,-5.382230281829834E-001,-8.349970579147339E-001,-4.694554582238197E-002,4.521635547280312E-002,-5.382230281829834E-001,-8.349970579147339E-001,
7.067333333333334E+008,-4.105799645185471E-002,4.073731228709221E-002,-5.597001910209656E-001,-8.081900477409363E-001,-4.105799645185471E-002,4.073731228709221E-002,-5.597001910209656E-001,-8.081900477409363E-001,
7.151000000000000E+008,-4.038851708173752E-002,3.364331275224686E-002,-5.956185460090637E-001,-8.058646917343140E-001,-4.038851708173752E-002,3.364331275224686E-002,-5.956185460090637E-001,-8.058646917343140E-001,
7.234666666666666E+008,-4.218638688325882E-002,2.900133468210697E-002,-6.085332632064819E-001,-7.889270782470703E-001,-4.218638688325882E-002,2.900133468210697E-002,-6.085332632064819E-001,-7.889270782470703E-001,
7.318333333333334E+008,-4.925251752138138E-002,2.711868844926357E-002,-6.246361136436462E-001,-7.724475860595703E-001,-4.925251752138138E-002,2.711868844926357E-002,-6.246361136436462E-001,-7.724475860595703E-001,
7.402000000000000E+008,-5.522359907627106E-002,2.981064282357693E-002,-6.352635622024536E-001,-7.475258111953735E-001,-5.522359907627106E-002,2.981064282357693E-002,-6.352635622024536E-001,-7.475258111953735E-001,
7.485666666666666E+008,-6.016321480274200E-002,3.739818185567856E-002,-6.657344698905945E-001,-7.334364056587219E-001,-6.016321480274200E-002,3.739818185567856E-002,-6.657344698905945E-001,-7.334364056587219E-001,
7.569333333333334E+008,-6.383857876062393E-002,4.760870710015297E-002,-6.836637258529663E-001,-7.192724943161011E-001,-6.383857876062393E-002,4.760870710015297E-002,-6.836637258529663E-001,-7.192724943161011E-001,
7.653000000000000E+008,-5.832666903734207E-002,5.638802424073219E-002,-6.926785707473755E-001,-7.013386487960815E-001,-5.832666903734207E-002,5.638802424073219E-002,-6.926785707473755E-001,-7.013386487960815E-001,
7.736666666666666E+008,-5.206061527132988E-002,6.299704313278198E-002,-7.048426866531372E-001,-6.952619552612305E-001,-5.206061527132988E-002,6.299704313278198E-002,-7.048426866531372E-001,-6.952619552612305E-001,
7.820333333333334E+008,-4.360862821340561E-002,6.686747074127197E-002,-7.378380298614502E-001,-6.674020290374756E-001,-4.360862821340561E-002,6.686747074127197E-002,-7.378380298614502E-001,-6.674020290374756E-001,
7.904000000000000E+008,-3.360035642981529E-002,6.556081771850586E-002,-7.453831434249878E-001,-6.479519009590149E-001,-3.360035642981529E-002,6.556081771850586E-002,-7.453831434249878E-001,-6.479519009590149E-001,
7.987666666666666E+008,-2.953005023300648E-002,6.059466674923897E-002,-7.501143813133240E-001,-6.354571580886841E-001,-2.953005023300648E-002,6.059466674923897E-002,-7.501143813133240E-001,-6.354571580886841E-001,
8.071333333333334E+008,-2.751328423619270E-002,5.426612868905067E-002,-7.776732444763184E-001,-6.001772880554199E-001,-2.751328423619270E-002,5.426612868905067E-002,-7.776732444763184E-001,-6.001772880554199E-001,
8.155000000000000E+008,-2.974800206720829E-002,4.759553447365761E-002,-8.043914437294006E-001,-5.891162157058716E-001,-2.974800206720829E-002,4.759553447365761E-002,-8.043914437294006E-001,-5.891162157058716E-001,
8.238666666666666E+008,-3.601477667689323E-002,4.611321538686752E-002,-8.100481629371643E-001,-5.649233460426331E-001,-3.601477667689323E-002,4.611321538686752E-002,-8.100481629371643E-001,-5.649233460426331E-001,
8.322333333333334E+008,-4.109453037381172E-002,4.804494604468346E-002,-8.209475874900818E-001,-5.469649434089661E-001,-4.109453037381172E-002,4.804494604468346E-002,-8.209475874900818E-001,-5.469649434089661E-001,
8.406000000000000E+008,-4.495501890778542E-002,5.194209888577461E-002,-8.313166499137878E-001,-5.229638218879700E-001,-4.495501890778542E-002,5.194209888577461E-002,-8.313166499137878E-001,-5.229638218879700E-001,
8.489666666666668E+008,-4.612427949905396E-002,6.364058703184128E-002,-8.430438637733460E-001,-4.946848452091217E-001,-4.612427949905396E-002,6.364058703184128E-002,-8.430438637733460E-001,-4.946848452091217E-001,
8.573333333333334E+008,-4.374041780829430E-002,7.179295271635056E-002,-8.445157408714294E-001,-4.644655287265778E-001,-4.374041780829430E-002,7.179295271635056E-002,-8.445157408714294E-001,-4.644655287265778E-001,
8.657000000000000E+008,-3.833998367190361E-002,7.948937267065048E-002,-8.713425993919373E-001,-4.663798511028290E-001,-3.833998367190361E-002,7.948937267065048E-002,-8.713425993919373E-001,-4.663798511028290E-001,
8.740666666666668E+008,-2.925222553312779E-002,8.470500260591507E-002,-8.771625757217407E-001,-4.431404471397400E-001,-2.925222553312779E-002,8.470500260591507E-002,-8.771625757217407E-001,-4.431404471397400E-001,
8.824333333333334E+008,-2.114917896687985E-002,8.615580201148987E-002,-8.967539072036743E-001,-4.179320335388184E-001,-2.114917896687985E-002,8.615580201148987E-002,-8.967539072036743E-001,-4.179320335388184E-001,
8.908000000000000E+008,-1.288769580423832E-002,8.260012418031693E-002,-9.103414416313171E-001,-4.003548026084900E-001,-1.288769580423832E-002,8.260012418031693E-002,-9.103414416313171E-001,-4.003548026084900E-001,
8.991666666666668E+008,-7.458369247615337E-003,7.639914751052856E-002,-9.097624421119690E-001,-3.733971714973450E-001,-7.458369247615337E-003,7.639914751052856E-002,-9.097624421119690E-001,-3.733971714973450E-001,
9.075333333333334E+008,-6.600320804864168E-003,6.895855814218521E-002,-9.236888289451599E-001,-3.466458916664124E-001,-6.600320804864168E-003,6.895855814218521E-002,-9.236888289451599E-001,-3.466458916664124E-001,
9.159000000000000E+008,-9.097502566874027E-003,6.327984482049942E-002,-9.442579150199890E-001,-3.222427368164063E-001,-9.097502566874027E-003,6.327984482049942E-002,-9.442579150199890E-001,-3.222427368164063E-001,
9.242666666666668E+008,-1.510308962315321E-002,6.356091052293778E-002,-9.354551434516907E-001,-3.002516329288483E-001,-1.510308962315321E-002,6.356091052293778E-002,-9.354551434516907E-001,-3.002516329288483E-001,
9.326333333333334E+008,-1.939463242888451E-002,6.601866334676743E-002,-9.508984684944153E-001,-2.841554284095764E-001,-1.939463242888451E-002,6.601866334676743E-002,-9.508984684944153E-001,-2.841554284095764E-001,
9.410000000000000E+008,-2.257915213704109E-002,7.083086669445038E-002,-9.610548615455627E-001,-2.469220906496048E-001,-2.257915213704109E-002,7.083086669445038E-002,-9.610548615455627E-001,-2.469220906496048E-001,
9.493666666666668E+008,-2.333162538707256E-002,8.026945590972900E-002,-9.653143286705017E-001,-2.172197699546814E-001,-2.333162538707256E-002,8.026945590972900E-002,-9.653143286705017E-001,-2.172197699546814E-001,
9.577333333333334E+008,-1.936011202633381E-002,9.059152752161026E-002,-9.704781770706177E-001,-2.034413963556290E-001,-1.936011202633381E-002,9.059152752161026E-002,-9.704781770706177E-001,-2.034413963556290E-001,
9.661000000000000E+008,-1.051362231373787E-002,9.764624387025833E-002,-9.700934886932373E-001,-1.624232977628708E-001,-1.051362231373787E-002,9.764624387025833E-002,-9.700934886932373E-001,-1.624232977628708E-001,
9.744666666666668E+008,4.351093084551394E-004,9.767317026853561E-002,-9.687603116035461E-001,-1.533559709787369E-001,4.351093084551394E-004,9.767317026853561E-002,-9.687603116035461E-001,-1.533559709787369E-001,
9.828333333333334E+008,9.729238227009773E-003,9.896129369735718E-002,-9.836367964744568E-001,-1.330509781837463E-001,9.729238227009773E-003,9.896129369735718E-002,-9.836367964744568E-001,-1.330509781837463E-001,
9.912000000000000E+008,2.028232440352440E-002,9.205818176269531E-002,-9.809222817420960E-001,-1.098608076572418E-001,2.028232440352440E-002,9.205818176269531E-002,-9.809222817420960E-001,-1.098608076572418E-001,
9.995666666666668E+008,2.424953877925873E-002,8.418090641498566E-002,-9.920223951339722E-001,-7.175187021493912E-002,2.424953877925873E-002,8.418090641498566E-002,-9.920223951339722E-001,-7.175187021493912E-002,
1.007933333333333E+009,2.809726633131504E-002,7.427712529897690E-002,-1.006360054016113E+000,-5.428627505898476E-002,2.809726633131504E-002,7.427712529897690E-002,-1.006360054016113E+000,-5.428627505898476E-002,
1.016300000000000E+009,2.248078584671021E-002,6.794849038124085E-002,-9.924097061157227E-001,-2.893942221999168E-002,2.248078584671021E-002,6.794849038124085E-002,-9.924097061157227E-001,-2.893942221999168E-002,
1.024666666666667E+009,1.526206359267235E-002,6.414942443370819E-002,-9.878674745559692E-001,-2.555660903453827E-003,1.526206359267235E-002,6.414942443370819E-002,-9.878674745559692E-001,-2.555660903453827E-003,
1.033033333333333E+009,1.119836512953043E-002,6.908528506755829E-002,-9.947162270545960E-001,2.354572713375092E-002,1.119836512953043E-002,6.908528506755829E-002,-9.947162270545960E-001,2.354572713375092E-002,
1.041400000000000E+009,5.353710148483515E-003,7.440478354692459E-002,-9.939235448837280E-001,4.565912112593651E-002,5.353710148483515E-003,7.440478354692459E-002,-9.939235448837280E-001,4.565912112593651E-002,
1.049766666666667E+009,9.522917680442333E-003,8.392912149429321E-002,-9.781124591827393E-001,8.271746337413788E-002,9.522917680442333E-003,8.392912149429321E-002,-9.781124591827393E-001,8.271746337413788E-002,
1.058133333333333E+009,1.454395055770874E-002,9.346149861812592E-002,-9.798812866210938E-001,1.035936102271080E-001,1.454395055770874E-002,9.346149861812592E-002,-9.798812866210938E-001,1.035936102271080E-001,
1.066500000000000E+009,2.605069801211357E-002,9.772215783596039E-002,-9.928849339485169E-001,1.375596672296524E-001,2.605069801211357E-002,9.772215783596039E-002,-9.928849339485169E-001,1.375596672296524E-001,
1.074866666666667E+009,4.002005234360695E-002,9.626281261444092E-002,-9.871850609779358E-001,1.579290926456451E-001,4.002005234360695E-002,9.626281261444092E-002,-9.871850609779358E-001,1.579290926456451E-001,
1.083233333333334E+009,4.867987707257271E-002,8.809983730316162E-002,-9.703412055969238E-001,1.787046492099762E-001,4.867987707257271E-002,8.809983730316162E-002,-9.703412055969238E-001,1.787046492099762E-001,
1.091600000000000E+009,5.524725094437599E-002,7.710684835910797E-002,-9.526273012161255E-001,1.981415599584580E-001,5.524725094437599E-002,7.710684835910797E-002,-9.526273012161255E-001,1.981415599584580E-001,
1.099966666666667E+009,5.418495088815689E-002,6.331010907888413E-002,-9.461335539817810E-001,2.371582537889481E-001,5.418495088815689E-002,6.331010907888413E-002,-9.461335539817810E-001,2.371582537889481E-001,
1.108333333333334E+009,4.631047323346138E-002,5.509874224662781E-002,-9.481520056724548E-001,2.463351041078568E-001,4.631047323346138E-002,5.509874224662781E-002,-9.481520056724548E-001,2.463351041078568E-001,
1.116700000000000E+009,3.617548197507858E-002,5.169996991753578E-002,-9.392484426498413E-001,2.791052162647247E-001,3.617548197507858E-002,5.169996991753578E-002,-9.392484426498413E-001,2.791052162647247E-001,
1.125066666666667E+009,2.602501958608627E-002,5.629283934831619E-002,-9.390614032745361E-001,2.960056662559509E-001,2.602501958608627E-002,5.629283934831619E-002,-9.390614032745361E-001,2.960056662559509E-001,
1.133433333333334E+009,1.945169270038605E-002,6.591096520423889E-002,-9.354591369628906E-001,3.407966196537018E-001,1.945169270038605E-002,6.591096520423889E-002,-9.354591369628906E-001,3.407966196537018E-001,
1.141800000000000E+009,1.964658685028553E-002,7.926271855831146E-002,-9.117462038993835E-001,3.545509576797485E-001,1.964658685028553E-002,7.926271855831146E-002,-9.117462038993835E-001,3.545509576797485E-001,
1.150166666666667E+009,2.971568517386913E-002,9.311032295227051E-002,-9.039309024810791E-001,3.551334440708160E-001,2.971568517386913E-002,9.311032295227051E-002,-9.039309024810791E-001,3.551334440708160E-001,
1.158533333333334E+009,4.694054648280144E-002,9.992074221372604E-002,-8.939753770828247E-001,3.950466215610504E-001,4.694054648280144E-002,9.992074221372604E-002,-8.939753770828247E-001,3.950466215610504E-001,
1.166900000000000E+009,6.662305444478989E-002,9.938329458236694E-002,-8.773657679557800E-001,4.154513180255890E-001,6.662305444478989E-002,9.938329458236694E-002,-8.773657679557800E-001,4.154513180255890E-001,
1.175266666666667E+009,8.203698694705963E-002,8.807075768709183E-002,-8.705248236656189E-001,4.433094859123230E-001,8.203698694705963E-002,8.807075768709183E-002,-8.705248236656189E-001,4.433094859123230E-001,
1.183633333333334E+009,9.391855448484421E-002,7.293319702148438E-002,-8.699408173561096E-001,4.567165374755859E-001,9.391855448484421E-002,7.293319702148438E-002,-8.699408173561096E-001,4.567165374755859E-001,
1.192000000000000E+009,9.324722737073898E-002,5.394735559821129E-002,-8.562300801277161E-001,4.788475632667542E-001,9.324722737073898E-002,5.394735559821129E-002,-8.562300801277161E-001,4.788475632667542E-001,
1.200366666666667E+009,8.345043659210205E-002,3.724891319870949E-002,-8.434140086174011E-001,4.997674226760864E-001,8.345043659210205E-002,3.724891319870949E-002,-8.434140086174011E-001,4.997674226760864E-001,
1.208733333333334E+009,6.857784837484360E-002,2.856821008026600E-002,-8.357363343238831E-001,5.428597927093506E-001,6.857784837484360E-002,2.856821008026600E-002,-8.357363343238831E-001,5.428597927093506E-001,
1.217100000000000E+009,5.317681282758713E-002,2.948869764804840E-002,-8.320094943046570E-001,5.526329874992371E-001,5.317681282758713E-002,2.948869764804840E-002,-8.320094943046570E-001,5.526329874992371E-001,
1.225466666666667E+009,4.196010157465935E-002,4.045594856142998E-002,-7.978509068489075E-001,5.765700936317444E-001,4.196010157465935E-002,4.045594856142998E-002,-7.978509068489075E-001,5.765700936317444E-001,
1.233833333333334E+009,3.889157995581627E-002,5.676474422216415E-002,-7.921733260154724E-001,5.884272456169128E-001,3.889157995581627E-002,5.676474422216415E-002,-7.921733260154724E-001,5.884272456169128E-001,
1.242200000000000E+009,4.884330928325653E-002,7.046286016702652E-002,-7.656792402267456E-001,6.216765642166138E-001,4.884330928325653E-002,7.046286016702652E-002,-7.656792402267456E-001,6.216765642166138E-001,
1.250566666666667E+009,6.341216713190079E-002,7.966271787881851E-002,-7.444607615470886E-001,6.264417767524719E-001,6.341216713190079E-002,7.966271787881851E-002,-7.444607615470886E-001,6.264417767524719E-001,
1.258933333333334E+009,8.439926803112030E-002,7.897044718265533E-002,-7.368966341018677E-001,6.473624706268311E-001,8.439926803112030E-002,7.897044718265533E-002,-7.368966341018677E-001,6.473624706268311E-001,
1.267300000000000E+009,1.044700294733048E-001,6.744197010993958E-002,-7.179940342903137E-001,6.610645055770874E-001,1.044700294733048E-001,6.744197010993958E-002,-7.179940342903137E-001,6.610645055770874E-001,
1.275666666666667E+009,1.132232695817947E-001,4.901729896664619E-002,-7.050585150718689E-001,6.679588556289673E-001,1.132232695817947E-001,4.901729896664619E-002,-7.050585150718689E-001,6.679588556289673E-001,
1.284033333333334E+009,1.148754060268402E-001,2.760932967066765E-002,-6.897317171096802E-001,7.107754945755005E-001,1.148754060268402E-001,2.760932967066765E-002,-6.897317171096802E-001,7.107754945755005E-001,
1.292400000000000E+009,1.040877029299736E-001,8.803897537291050E-003,-6.765517592430115E-001,7.136058807373047E-001,1.040877029299736E-001,8.803897537291050E-003,-6.765517592430115E-001,7.136058807373047E-001,
1.300766666666667E+009,8.407358080148697E-002,4.452481807675213E-004,-6.542894244194031E-001,7.381402254104614E-001,8.407358080148697E-002,4.452481807675213E-004,-6.542894244194031E-001,7.381402254104614E-001,
1.309133333333334E+009,6.420056521892548E-002,1.861629658378661E-003,-6.296345591545105E-001,7.525672912597656E-001,6.420056521892548E-002,1.861629658378661E-003,-6.296345591545105E-001,7.525672912597656E-001,
1.317500000000000E+009,5.026435106992722E-002,1.354311779141426E-002,-6.154272556304932E-001,7.823253273963928E-001,5.026435106992722E-002,1.354311779141426E-002,-6.154272556304932E-001,7.823253273963928E-001,
1.325866666666667E+009,4.675583541393280E-002,3.007517382502556E-002,-5.944736003875732E-001,7.972338199615479E-001,4.675583541393280E-002,3.007517382502556E-002,-5.944736003875732E-001,7.972338199615479E-001,
1.334233333333334E+009,5.654570087790489E-002,4.675776511430740E-002,-5.756765007972717E-001,8.028413653373718E-001,5.654570087790489E-002,4.675776511430740E-002,-5.756765007972717E-001,8.028413653373718E-001,
1.342600000000000E+009,7.325429469347000E-002,5.417515337467194E-002,-5.573484301567078E-001,8.190085887908936E-001,7.325429469347000E-002,5.417515337467194E-002,-5.573484301567078E-001,8.190085887908936E-001,
1.350966666666667E+009,9.428907930850983E-002,5.019192397594452E-002,-5.307738184928894E-001,8.296595215797424E-001,9.428907930850983E-002,5.019192397594452E-002,-5.307738184928894E-001,8.296595215797424E-001,
1.359333333333334E+009,1.095398515462875E-001,3.569305688142777E-002,-5.170146822929382E-001,8.294358253479004E-001,1.095398515462875E-001,3.569305688142777E-002,-5.170146822929382E-001,8.294358253479004E-001,
1.367700000000000E+009,1.152131855487824E-001,1.534467097371817E-002,-4.839085042476654E-001,8.470445871353149E-001,1.152131855487824E-001,1.534467097371817E-002,-4.839085042476654E-001,8.470445871353149E-001,
1.376066666666667E+009,1.110782474279404E-001,-7.177073974162340E-003,-4.682255685329437E-001,8.559092879295349E-001,1.110782474279404E-001,-7.177073974162340E-003,-4.682255685329437E-001,8.559092879295349E-001,
1.384433333333334E+009,9.367311745882034E-002,-2.206831984221935E-002,-4.526076912879944E-001,8.869801163673401E-001,9.367311745882034E-002,-2.206831984221935E-002,-4.526076912879944E-001,8.869801163673401E-001,
1.392800000000000E+009,7.270834594964981E-002,-2.405703626573086E-002,-4.315371513366699E-001,8.950448632240295E-001,7.270834594964981E-002,-2.405703626573086E-002,-4.315371513366699E-001,8.950448632240295E-001,
1.401166666666667E+009,5.239723250269890E-002,-1.638638600707054E-002,-4.042818248271942E-001,9.024073481559753E-001,5.239723250269890E-002,-1.638638600707054E-002,-4.042818248271942E-001,9.024073481559753E-001,
1.409533333333334E+009,3.935477882623673E-002,4.245580930728465E-004,-3.740768730640411E-001,9.164755940437317E-001,3.935477882623673E-002,4.245580930728465E-004,-3.740768730640411E-001,9.164755940437317E-001,
1.417900000000000E+009,4.126494377851486E-002,2.298354543745518E-002,-3.549059033393860E-001,9.113274216651917E-001,4.126494377851486E-002,2.298354543745518E-002,-3.549059033393860E-001,9.113274216651917E-001,
1.426266666666667E+009,5.318068712949753E-002,3.877603262662888E-002,-3.162487745285034E-001,9.364668130874634E-001,5.318068712949753E-002,3.877603262662888E-002,-3.162487745285034E-001,9.364668130874634E-001,
1.434633333333334E+009,7.461399585008621E-002,4.511065781116486E-002,-3.064559996128082E-001,9.307447671890259E-001,7.461399585008621E-002,4.511065781116486E-002,-3.064559996128082E-001,9.307447671890259E-001,
1.443000000000000E+009,9.562096744775772E-002,4.039678350090981E-002,-2.815863192081451E-001,9.371808171272278E-001,9.562096744775772E-002,4.039678350090981E-002,-2.815863192081451E-001,9.371808171272278E-001,
1.451366666666667E+009,1.116138249635696E-001,2.338662929832935E-002,-2.555155158042908E-001,9.362477064132690E-001,1.116138249635696E-001,2.338662929832935E-002,-2.555155158042908E-001,9.362477064132690E-001,
1.459733333333334E+009,1.179826110601425E-001,2.213368890807033E-003,-2.293299585580826E-001,9.621734619140625E-001,1.179826110601425E-001,2.213368890807033E-003,-2.293299585580826E-001,9.621734619140625E-001,
