% Version 1.00
%
%freq[Hz],re:Trc1_S11,im:Trc1_S11,re:Trc2_S21,im:Trc2_S21,re:Trc3_S11,im:Trc3_S11,re:Trc4_S21,im:Trc4_S21,
6.900000000000000E+008,-4.885294660925865E-002,4.048234969377518E-002,-5.059505105018616E-001,-8.500159978866577E-001,-4.885294660925865E-002,4.048234969377518E-002,-5.059505105018616E-001,-8.500159978866577E-001,
6.983666666666666E+008,-4.072938486933708E-002,4.067696630954742E-002,-5.315893292427063E-001,-8.377028703689575E-001,-4.072938486933708E-002,4.067696630954742E-002,-5.315893292427063E-001,-8.377028703689575E-001,
7.067333333333334E+008,-3.500895947217941E-002,3.608976677060127E-002,-5.544478297233582E-001,-8.138304352760315E-001,-3.500895947217941E-002,3.608976677060127E-002,-5.544478297233582E-001,-8.138304352760315E-001,
7.151000000000000E+008,-3.510200977325440E-002,2.865159511566162E-002,-5.902808308601379E-001,-8.124905228614807E-001,-3.510200977325440E-002,2.865159511566162E-002,-5.902808308601379E-001,-8.124905228614807E-001,
7.234666666666666E+008,-3.693011030554771E-002,2.357289940118790E-002,-6.036365628242493E-001,-7.951333522796631E-001,-3.693011030554771E-002,2.357289940118790E-002,-6.036365628242493E-001,-7.951333522796631E-001,
7.318333333333334E+008,-4.454835876822472E-002,2.141353115439415E-002,-6.202375888824463E-001,-7.781098484992981E-001,-4.454835876822472E-002,2.141353115439415E-002,-6.202375888824463E-001,-7.781098484992981E-001,
7.402000000000000E+008,-5.091812461614609E-002,2.366165630519390E-002,-6.320146322250366E-001,-7.537658810615540E-001,-5.091812461614609E-002,2.366165630519390E-002,-6.320146322250366E-001,-7.537658810615540E-001,
7.485666666666666E+008,-5.591906234622002E-002,3.073962405323982E-002,-6.617510914802551E-001,-7.391016483306885E-001,-5.591906234622002E-002,3.073962405323982E-002,-6.617510914802551E-001,-7.391016483306885E-001,
7.569333333333334E+008,-5.960209295153618E-002,4.081193730235100E-002,-6.811302304267883E-001,-7.262377738952637E-001,-5.960209295153618E-002,4.081193730235100E-002,-6.811302304267883E-001,-7.262377738952637E-001,
7.653000000000000E+008,-5.403387546539307E-002,4.967630282044411E-002,-6.864376068115234E-001,-7.070797085762024E-001,-5.403387546539307E-002,4.967630282044411E-002,-6.864376068115234E-001,-7.070797085762024E-001,
7.736666666666666E+008,-4.727572947740555E-002,5.630003660917282E-002,-6.985052824020386E-001,-7.036742568016052E-001,-4.727572947740555E-002,5.630003660917282E-002,-6.985052824020386E-001,-7.036742568016052E-001,
7.820333333333334E+008,-3.829887881875038E-002,6.034824624657631E-002,-7.330293059349060E-001,-6.756750345230103E-001,-3.829887881875038E-002,6.034824624657631E-002,-7.330293059349060E-001,-6.756750345230103E-001,
7.904000000000000E+008,-2.803130261600018E-002,5.925048887729645E-002,-7.426019310951233E-001,-6.547406911849976E-001,-2.803130261600018E-002,5.925048887729645E-002,-7.426019310951233E-001,-6.547406911849976E-001,
7.987666666666666E+008,-2.377117052674294E-002,5.386710166931152E-002,-7.459385395050049E-001,-6.392507553100586E-001,-2.377117052674294E-002,5.386710166931152E-002,-7.459385395050049E-001,-6.392507553100586E-001,
8.071333333333334E+008,-2.207999117672443E-002,4.764787107706070E-002,-7.720819711685181E-001,-6.077711582183838E-001,-2.207999117672443E-002,4.764787107706070E-002,-7.720819711685181E-001,-6.077711582183838E-001,
8.155000000000000E+008,-2.478593587875366E-002,4.074079915881157E-002,-7.999569773674011E-001,-5.976216197013855E-001,-2.478593587875366E-002,4.074079915881157E-002,-7.999569773674011E-001,-5.976216197013855E-001,
8.238666666666666E+008,-3.170773759484291E-002,3.877728432416916E-002,-8.064869046211243E-001,-5.733357071876526E-001,-3.170773759484291E-002,3.877728432416916E-002,-8.064869046211243E-001,-5.733357071876526E-001,
8.322333333333334E+008,-3.725717589259148E-002,4.050970077514648E-002,-8.154292106628418E-001,-5.557963848114014E-001,-3.725717589259148E-002,4.050970077514648E-002,-8.154292106628418E-001,-5.557963848114014E-001,
8.406000000000000E+008,-4.189702123403549E-002,4.377628117799759E-002,-8.271265029907227E-001,-5.308439731597900E-001,-4.189702123403549E-002,4.377628117799759E-002,-8.271265029907227E-001,-5.308439731597900E-001,
8.489666666666668E+008,-4.345325380563736E-002,5.495299771428108E-002,-8.387370705604553E-001,-5.028052926063538E-001,-4.345325380563736E-002,5.495299771428108E-002,-8.387370705604553E-001,-5.028052926063538E-001,
8.573333333333334E+008,-4.112968593835831E-002,6.291293352842331E-002,-8.416749835014343E-001,-4.718786776065826E-001,-4.112968593835831E-002,6.291293352842331E-002,-8.416749835014343E-001,-4.718786776065826E-001,
8.657000000000000E+008,-3.579026460647583E-002,7.051129639148712E-002,-8.688658475875855E-001,-4.760473072528839E-001,-3.579026460647583E-002,7.051129639148712E-002,-8.688658475875855E-001,-4.760473072528839E-001,
8.740666666666668E+008,-2.630024403333664E-002,7.502787560224533E-002,-8.773413300514221E-001,-4.499717354774475E-001,-2.630024403333664E-002,7.502787560224533E-002,-8.773413300514221E-001,-4.499717354774475E-001,
8.824333333333334E+008,-1.815576478838921E-002,7.686647772789002E-002,-8.933726549148560E-001,-4.257624745368958E-001,-1.815576478838921E-002,7.686647772789002E-002,-8.933726549148560E-001,-4.257624745368958E-001,
8.908000000000000E+008,-9.591279551386833E-003,7.334126532077789E-002,-9.072725176811218E-001,-4.085060358047485E-001,-9.591279551386833E-003,7.334126532077789E-002,-9.072725176811218E-001,-4.085060358047485E-001,
8.991666666666668E+008,-4.373130854219198E-003,6.751710921525955E-002,-9.088636636734009E-001,-3.831342160701752E-001,-4.373130854219198E-003,6.751710921525955E-002,-9.088636636734009E-001,-3.831342160701752E-001,
9.075333333333334E+008,-3.656529588624835E-003,6.017233803868294E-002,-9.222708344459534E-001,-3.581701815128326E-001,-3.656529588624835E-003,6.017233803868294E-002,-9.222708344459534E-001,-3.581701815128326E-001,
9.159000000000000E+008,-6.431247573345900E-003,5.438998341560364E-002,-9.426094293594360E-001,-3.307214379310608E-001,-6.431247573345900E-003,5.438998341560364E-002,-9.426094293594360E-001,-3.307214379310608E-001,
9.242666666666668E+008,-1.323196664452553E-002,5.449040606617928E-002,-9.332259297370911E-001,-3.090954422950745E-001,-1.323196664452553E-002,5.449040606617928E-002,-9.332259297370911E-001,-3.090954422950745E-001,
9.326333333333334E+008,-1.818435080349445E-002,5.705934017896652E-002,-9.484218955039978E-001,-2.937478423118591E-001,-1.818435080349445E-002,5.705934017896652E-002,-9.484218955039978E-001,-2.937478423118591E-001,
9.410000000000000E+008,-2.195277251303196E-002,6.128360331058502E-002,-9.598860144615173E-001,-2.578109204769135E-001,-2.195277251303196E-002,6.128360331058502E-002,-9.598860144615173E-001,-2.578109204769135E-001,
9.493666666666668E+008,-2.337654680013657E-002,7.040211558341980E-002,-9.645491838455200E-001,-2.279181778430939E-001,-2.337654680013657E-002,7.040211558341980E-002,-9.645491838455200E-001,-2.279181778430939E-001,
9.577333333333334E+008,-1.940686814486980E-002,8.051556348800659E-002,-9.699651002883911E-001,-2.143301516771317E-001,-1.940686814486980E-002,8.051556348800659E-002,-9.699651002883911E-001,-2.143301516771317E-001,
9.661000000000000E+008,-1.031639240682125E-002,8.690492808818817E-002,-9.715057611465454E-001,-1.736919134855270E-001,-1.031639240682125E-002,8.690492808818817E-002,-9.715057611465454E-001,-1.736919134855270E-001,
9.744666666666668E+008,5.846562562510371E-004,8.669467270374298E-002,-9.694716334342957E-001,-1.609762012958527E-001,5.846562562510371E-004,8.669467270374298E-002,-9.694716334342957E-001,-1.609762012958527E-001,
9.828333333333334E+008,1.000418514013290E-002,8.796519041061401E-002,-9.832757115364075E-001,-1.424929946660996E-001,1.000418514013290E-002,8.796519041061401E-002,-9.832757115364075E-001,-1.424929946660996E-001,
9.912000000000000E+008,2.080706506967545E-002,8.139040321111679E-002,-9.816033840179443E-001,-1.196611449122429E-001,2.080706506967545E-002,8.139040321111679E-002,-9.816033840179443E-001,-1.196611449122429E-001,
9.995666666666668E+008,2.487548254430294E-002,7.341659069061279E-002,-9.937051534652710E-001,-8.249942213296890E-002,2.487548254430294E-002,7.341659069061279E-002,-9.937051534652710E-001,-8.249942213296890E-002,
1.007933333333333E+009,2.818085439503193E-002,6.419052928686142E-002,-1.009729385375977E+000,-6.646085530519486E-002,2.818085439503193E-002,6.419052928686142E-002,-1.009729385375977E+000,-6.646085530519486E-002,
1.016300000000000E+009,2.211970835924149E-002,5.799244716763496E-002,-9.956608414649963E-001,-3.983804583549500E-002,2.211970835924149E-002,5.799244716763496E-002,-9.956608414649963E-001,-3.983804583549500E-002,
1.024666666666667E+009,1.408660598099232E-002,5.433442071080208E-002,-9.915273785591126E-001,-1.314593106508255E-002,1.408660598099232E-002,5.433442071080208E-002,-9.915273785591126E-001,-1.314593106508255E-002,
1.033033333333333E+009,9.334361180663109E-003,5.922309681773186E-002,-9.982444643974304E-001,1.298382226377726E-002,9.334361180663109E-003,5.922309681773186E-002,-9.982444643974304E-001,1.298382226377726E-002,
1.041400000000000E+009,2.964608371257782E-003,6.395577639341354E-002,-9.967732429504395E-001,3.366991132497788E-002,2.964608371257782E-003,6.395577639341354E-002,-9.967732429504395E-001,3.366991132497788E-002,
1.049766666666667E+009,6.337275728583336E-003,7.343307882547379E-002,-9.840116500854492E-001,7.073696702718735E-002,6.337275728583336E-003,7.343307882547379E-002,-9.840116500854492E-001,7.073696702718735E-002,
1.058133333333333E+009,1.111485809087753E-002,8.226069062948227E-002,-9.841343164443970E-001,9.205112606287003E-002,1.111485809087753E-002,8.226069062948227E-002,-9.841343164443970E-001,9.205112606287003E-002,
1.066500000000000E+009,2.276537008583546E-002,8.616403490304947E-002,-9.985784888267517E-001,1.271790564060211E-001,2.276537008583546E-002,8.616403490304947E-002,-9.985784888267517E-001,1.271790564060211E-001,
1.074866666666667E+009,3.683118894696236E-002,8.448806405067444E-002,-9.917332530021668E-001,1.471315473318100E-001,3.683118894696236E-002,8.448806405067444E-002,-9.917332530021668E-001,1.471315473318100E-001,
1.083233333333334E+009,4.583238437771797E-002,7.592655718326569E-002,-9.759498238563538E-001,1.678072810173035E-001,4.583238437771797E-002,7.592655718326569E-002,-9.759498238563538E-001,1.678072810173035E-001,
1.091600000000000E+009,5.217704549431801E-002,6.526522338390350E-002,-9.584102630615234E-001,1.870255470275879E-001,5.217704549431801E-002,6.526522338390350E-002,-9.584102630615234E-001,1.870255470275879E-001,
1.099966666666667E+009,5.102827027440071E-002,5.136520043015480E-002,-9.530452489852905E-001,2.250962406396866E-001,5.102827027440071E-002,5.136520043015480E-002,-9.530452489852905E-001,2.250962406396866E-001,
1.108333333333334E+009,4.295696318149567E-002,4.345024377107620E-002,-9.522945284843445E-001,2.332386374473572E-001,4.295696318149567E-002,4.345024377107620E-002,-9.522945284843445E-001,2.332386374473572E-001,
1.116700000000000E+009,3.226529806852341E-002,4.054976254701614E-002,-9.462054967880249E-001,2.675130665302277E-001,3.226529806852341E-002,4.054976254701614E-002,-9.462054967880249E-001,2.675130665302277E-001,
1.125066666666667E+009,2.141064964234829E-002,4.573923721909523E-002,-9.474239945411682E-001,2.843049764633179E-001,2.141064964234829E-002,4.573923721909523E-002,-9.474239945411682E-001,2.843049764633179E-001,
1.133433333333334E+009,1.386263407766819E-002,5.587893724441528E-002,-9.439840912818909E-001,3.301475644111633E-001,1.386263407766819E-002,5.587893724441528E-002,-9.439840912818909E-001,3.301475644111633E-001,
1.141800000000000E+009,1.318851765245199E-002,6.923847645521164E-002,-9.196593761444092E-001,3.434822261333466E-001,1.318851765245199E-002,6.923847645521164E-002,-9.196593761444092E-001,3.434822261333466E-001,
1.150166666666667E+009,2.260788157582283E-002,8.362558484077454E-002,-9.111463427543640E-001,3.448830842971802E-001,2.260788157582283E-002,8.362558484077454E-002,-9.111463427543640E-001,3.448830842971802E-001,
1.158533333333334E+009,3.903887420892716E-002,9.004848450422287E-002,-9.034712910652161E-001,3.858564794063568E-001,3.903887420892716E-002,9.004848450422287E-002,-9.034712910652161E-001,3.858564794063568E-001,
1.166900000000000E+009,5.896081030368805E-002,8.922401070594788E-002,-8.869816064834595E-001,4.063611924648285E-001,5.896081030368805E-002,8.922401070594788E-002,-8.869816064834595E-001,4.063611924648285E-001,
1.175266666666667E+009,7.485105097293854E-002,7.761542499065399E-002,-8.803917765617371E-001,4.334370493888855E-001,7.485105097293854E-002,7.761542499065399E-002,-8.803917765617371E-001,4.334370493888855E-001,
1.183633333333334E+009,8.686415106058121E-002,6.221367418766022E-002,-8.788879513740540E-001,4.460621774196625E-001,8.686415106058121E-002,6.221367418766022E-002,-8.788879513740540E-001,4.460621774196625E-001,
1.192000000000000E+009,8.678135275840759E-002,4.318737611174583E-002,-8.670334219932556E-001,4.683311283588409E-001,8.678135275840759E-002,4.318737611174583E-002,-8.670334219932556E-001,4.683311283588409E-001,
1.200366666666667E+009,7.674066722393036E-002,2.630320563912392E-002,-8.541385531425476E-001,4.902544617652893E-001,7.674066722393036E-002,2.630320563912392E-002,-8.541385531425476E-001,4.902544617652893E-001,
1.208733333333334E+009,6.183381751179695E-002,1.794975064694881E-002,-8.465520739555359E-001,5.324261188507080E-001,6.183381751179695E-002,1.794975064694881E-002,-8.465520739555359E-001,5.324261188507080E-001,
1.217100000000000E+009,4.587619379162788E-002,1.952551677823067E-002,-8.408504724502564E-001,5.426741838455200E-001,4.587619379162788E-002,1.952551677823067E-002,-8.408504724502564E-001,5.426741838455200E-001,
1.225466666666667E+009,3.420515358448029E-002,3.122435696423054E-002,-8.099485635757446E-001,5.682606101036072E-001,3.420515358448029E-002,3.122435696423054E-002,-8.099485635757446E-001,5.682606101036072E-001,
1.233833333333334E+009,3.005710430443287E-002,4.785186052322388E-002,-8.043256998062134E-001,5.788483023643494E-001,3.005710430443287E-002,4.785186052322388E-002,-8.043256998062134E-001,5.788483023643494E-001,
1.242200000000000E+009,3.890650719404221E-002,6.202330440282822E-002,-7.780757546424866E-001,6.118185520172119E-001,3.890650719404221E-002,6.202330440282822E-002,-7.780757546424866E-001,6.118185520172119E-001,
1.250566666666667E+009,5.256230384111404E-002,7.175505906343460E-002,-7.559316754341126E-001,6.177049875259399E-001,5.256230384111404E-002,7.175505906343460E-002,-7.559316754341126E-001,6.177049875259399E-001,
1.258933333333334E+009,7.302353531122208E-002,7.088518887758255E-002,-7.497268319129944E-001,6.399604678153992E-001,7.302353531122208E-002,7.088518887758255E-002,-7.497268319129944E-001,6.399604678153992E-001,
1.267300000000000E+009,9.253260493278503E-002,5.930165201425552E-002,-7.308013439178467E-001,6.540746092796326E-001,9.253260493278503E-002,5.930165201425552E-002,-7.308013439178467E-001,6.540746092796326E-001,
1.275666666666667E+009,1.012603417038918E-001,4.059958830475807E-002,-7.179412841796875E-001,6.599570512771606E-001,1.012603417038918E-001,4.059958830475807E-002,-7.179412841796875E-001,6.599570512771606E-001,
1.284033333333334E+009,1.035570427775383E-001,1.886005885899067E-002,-7.027102708816528E-001,7.056914567947388E-001,1.035570427775383E-001,1.886005885899067E-002,-7.027102708816528E-001,7.056914567947388E-001,
1.292400000000000E+009,9.289942681789398E-002,3.195863682776690E-004,-6.911354064941406E-001,7.075492739677429E-001,9.289942681789398E-002,3.195863682776690E-004,-6.911354064941406E-001,7.075492739677429E-001,
1.300766666666667E+009,7.346726208925247E-002,-8.074337616562843E-003,-6.675930619239807E-001,7.314547896385193E-001,7.346726208925247E-002,-8.074337616562843E-003,-6.675930619239807E-001,7.314547896385193E-001,
1.309133333333334E+009,5.322976037859917E-002,-6.102731917053461E-003,-6.430079340934753E-001,7.452301383018494E-001,5.322976037859917E-002,-6.102731917053461E-003,-6.430079340934753E-001,7.452301383018494E-001,
1.317500000000000E+009,3.958377987146378E-002,6.187614053487778E-003,-6.302943229675293E-001,7.788949608802795E-001,3.958377987146378E-002,6.187614053487778E-003,-6.302943229675293E-001,7.788949608802795E-001,
1.325866666666667E+009,3.531709313392639E-002,2.347239106893539E-002,-6.080871224403381E-001,7.917156815528870E-001,3.531709313392639E-002,2.347239106893539E-002,-6.080871224403381E-001,7.917156815528870E-001,
1.334233333333334E+009,4.426969960331917E-002,4.105812311172485E-002,-5.904396176338196E-001,7.966865897178650E-001,4.426969960331917E-002,4.105812311172485E-002,-5.904396176338196E-001,7.966865897178650E-001,
1.342600000000000E+009,6.011786684393883E-002,4.938492551445961E-002,-5.716421604156494E-001,8.144919276237488E-001,6.011786684393883E-002,4.938492551445961E-002,-5.716421604156494E-001,8.144919276237488E-001,
1.350966666666667E+009,8.048519492149353E-002,4.573626443743706E-002,-5.477227568626404E-001,8.249654173851013E-001,8.048519492149353E-002,4.573626443743706E-002,-5.477227568626404E-001,8.249654173851013E-001,
1.359333333333334E+009,9.521199762821198E-002,3.150924667716026E-002,-5.322905182838440E-001,8.243221044540405E-001,9.521199762821198E-002,3.150924667716026E-002,-5.322905182838440E-001,8.243221044540405E-001,
1.367700000000000E+009,1.006331816315651E-001,1.069953292608261E-002,-4.992631375789642E-001,8.438798189163208E-001,1.006331816315651E-001,1.069953292608261E-002,-4.992631375789642E-001,8.438798189163208E-001,
1.376066666666667E+009,9.653849899768829E-002,-1.188977807760239E-002,-4.838377237319946E-001,8.524905443191528E-001,9.653849899768829E-002,-1.188977807760239E-002,-4.838377237319946E-001,8.524905443191528E-001,
1.384433333333334E+009,7.921300083398819E-002,-2.715019695460796E-002,-4.698972404003143E-001,8.850102424621582E-001,7.921300083398819E-002,-2.715019695460796E-002,-4.698972404003143E-001,8.850102424621582E-001,
1.392800000000000E+009,5.854359269142151E-002,-2.970811910927296E-002,-4.486733078956604E-001,8.923815488815308E-001,5.854359269142151E-002,-2.970811910927296E-002,-4.486733078956604E-001,8.923815488815308E-001,
1.401166666666667E+009,3.832030296325684E-002,-2.201673388481140E-002,-4.202140569686890E-001,8.995830416679382E-001,3.832030296325684E-002,-2.201673388481140E-002,-4.202140569686890E-001,8.995830416679382E-001,
1.409533333333334E+009,2.558542415499687E-002,-4.461862146854401E-003,-3.896962404251099E-001,9.129052162170410E-001,2.558542415499687E-002,-4.461862146854401E-003,-3.896962404251099E-001,9.129052162170410E-001,
1.417900000000000E+009,2.710020169615746E-002,1.896506175398827E-002,-3.720731139183044E-001,9.108354449272156E-001,2.710020169615746E-002,1.896506175398827E-002,-3.720731139183044E-001,9.108354449272156E-001,
1.426266666666667E+009,3.863567486405373E-002,3.558071702718735E-002,-3.346299827098846E-001,9.363121390342712E-001,3.863567486405373E-002,3.558071702718735E-002,-3.346299827098846E-001,9.363121390342712E-001,
1.434633333333334E+009,5.946063995361328E-002,4.349713400006294E-002,-3.233486711978912E-001,9.296477437019348E-001,5.946063995361328E-002,4.349713400006294E-002,-3.233486711978912E-001,9.296477437019348E-001,
1.443000000000000E+009,8.020614832639694E-002,3.987137600779533E-002,-2.976748347282410E-001,9.373247027397156E-001,8.020614832639694E-002,3.987137600779533E-002,-2.976748347282410E-001,9.373247027397156E-001,
1.451366666666667E+009,9.586853533983231E-002,2.361285127699375E-002,-2.727459669113159E-001,9.369470477104187E-001,9.586853533983231E-002,2.361285127699375E-002,-2.727459669113159E-001,9.369470477104187E-001,
1.459733333333334E+009,1.019115597009659E-001,2.666826359927654E-003,-2.465974986553192E-001,9.644746780395508E-001,1.019115597009659E-001,2.666826359927654E-003,-2.465974986553192E-001,9.644746780395508E-001,
