% Version 1.00
%
%freq[Hz],re:Trc1_S11,im:Trc1_S11,re:Trc2_S21,im:Trc2_S21,re:Trc3_S11,im:Trc3_S11,re:Trc4_S21,im:Trc4_S21,
6.900000000000000E+008,-7.646804302930832E-002,4.454886075109243E-003,-4.583759307861328E-001,-8.566511869430542E-001,-7.646804302930832E-002,4.454886075109243E-003,-4.583759307861328E-001,-8.566511869430542E-001,
6.983666666666666E+008,-6.848257035017014E-002,4.886792972683907E-003,-4.894625246524811E-001,-8.470781445503235E-001,-6.848257035017014E-002,4.886792972683907E-003,-4.894625246524811E-001,-8.470781445503235E-001,
7.067333333333334E+008,-6.352405250072479E-002,-1.169306458905339E-003,-5.087284445762634E-001,-8.158985376358032E-001,-6.352405250072479E-002,-1.169306458905339E-003,-5.087284445762634E-001,-8.158985376358032E-001,
7.151000000000000E+008,-6.356414407491684E-002,-6.787459831684828E-003,-5.461180210113525E-001,-8.198054432868958E-001,-6.356414407491684E-002,-6.787459831684828E-003,-5.461180210113525E-001,-8.198054432868958E-001,
7.234666666666666E+008,-6.704635918140411E-002,-1.178692560642958E-002,-5.599384903907776E-001,-8.019096255302429E-001,-6.704635918140411E-002,-1.178692560642958E-002,-5.599384903907776E-001,-8.019096255302429E-001,
7.318333333333334E+008,-7.487690448760986E-002,-1.441523898392916E-002,-5.750945210456848E-001,-7.885192036628723E-001,-7.487690448760986E-002,-1.441523898392916E-002,-5.750945210456848E-001,-7.885192036628723E-001,
7.402000000000000E+008,-8.267205953598023E-002,-1.247302629053593E-002,-5.862967967987061E-001,-7.657051682472229E-001,-8.267205953598023E-002,-1.247302629053593E-002,-5.862967967987061E-001,-7.657051682472229E-001,
7.485666666666666E+008,-8.966542035341263E-002,-4.660762380808592E-003,-6.161218285560608E-001,-7.542980909347534E-001,-8.966542035341263E-002,-4.660762380808592E-003,-6.161218285560608E-001,-7.542980909347534E-001,
7.569333333333334E+008,-9.474141150712967E-002,6.615003570914269E-003,-6.295510530471802E-001,-7.416592240333557E-001,-9.474141150712967E-002,6.615003570914269E-003,-6.295510530471802E-001,-7.416592240333557E-001,
7.653000000000000E+008,-9.060127288103104E-002,1.674499362707138E-002,-6.486690044403076E-001,-7.247051596641541E-001,-9.060127288103104E-002,1.674499362707138E-002,-6.486690044403076E-001,-7.247051596641541E-001,
7.736666666666666E+008,-8.453065901994705E-002,2.458817884325981E-002,-6.565628647804260E-001,-7.265018820762634E-001,-8.453065901994705E-002,2.458817884325981E-002,-6.565628647804260E-001,-7.265018820762634E-001,
7.820333333333334E+008,-7.742217928171158E-002,3.040976822376251E-002,-6.971438527107239E-001,-6.993356943130493E-001,-7.742217928171158E-002,3.040976822376251E-002,-6.971438527107239E-001,-6.993356943130493E-001,
7.904000000000000E+008,-6.754191964864731E-002,3.151523321866989E-002,-7.004745602607727E-001,-6.789183020591736E-001,-6.754191964864731E-002,3.151523321866989E-002,-7.004745602607727E-001,-6.789183020591736E-001,
7.987666666666666E+008,-6.355484575033188E-002,2.858301997184753E-002,-7.105035781860352E-001,-6.671698093414307E-001,-6.355484575033188E-002,2.858301997184753E-002,-7.105035781860352E-001,-6.671698093414307E-001,
8.071333333333334E+008,-6.060398742556572E-002,2.329704724252224E-002,-7.446007132530212E-001,-6.326231360435486E-001,-6.060398742556572E-002,2.329704724252224E-002,-7.446007132530212E-001,-6.326231360435486E-001,
8.155000000000000E+008,-6.260856240987778E-002,1.762382872402668E-002,-7.657456994056702E-001,-6.242731809616089E-001,-6.260856240987778E-002,1.762382872402668E-002,-7.657456994056702E-001,-6.242731809616089E-001,
8.238666666666666E+008,-6.922478973865509E-002,1.609441637992859E-002,-7.758866548538208E-001,-5.977012515068054E-001,-6.922478973865509E-002,1.609441637992859E-002,-7.758866548538208E-001,-5.977012515068054E-001,
8.322333333333334E+008,-7.426460832357407E-002,1.873158663511276E-002,-7.853409051895142E-001,-5.805984735488892E-001,-7.426460832357407E-002,1.873158663511276E-002,-7.853409051895142E-001,-5.805984735488892E-001,
8.406000000000000E+008,-7.889577746391296E-002,2.211001701653004E-002,-7.989703416824341E-001,-5.561869740486145E-001,-7.889577746391296E-002,2.211001701653004E-002,-7.989703416824341E-001,-5.561869740486145E-001,
8.489666666666668E+008,-8.146381378173828E-002,3.474336490035057E-002,-8.092805147171021E-001,-5.321658849716187E-001,-8.146381378173828E-002,3.474336490035057E-002,-8.092805147171021E-001,-5.321658849716187E-001,
8.573333333333334E+008,-7.939737290143967E-002,4.333465173840523E-002,-8.147643804550171E-001,-5.034493207931519E-001,-7.939737290143967E-002,4.333465173840523E-002,-8.147643804550171E-001,-5.034493207931519E-001,
8.657000000000000E+008,-7.413528859615326E-002,5.156248062849045E-002,-8.411521315574646E-001,-5.080325007438660E-001,-7.413528859615326E-002,5.156248062849045E-002,-8.411521315574646E-001,-5.080325007438660E-001,
8.740666666666668E+008,-6.480590999126434E-002,5.822255089879036E-002,-8.509250879287720E-001,-4.848267138004303E-001,-6.480590999126434E-002,5.822255089879036E-002,-8.509250879287720E-001,-4.848267138004303E-001,
8.824333333333334E+008,-5.690211057662964E-002,6.139924749732018E-002,-8.693211078643799E-001,-4.604701399803162E-001,-5.690211057662964E-002,6.139924749732018E-002,-8.693211078643799E-001,-4.604701399803162E-001,
8.908000000000000E+008,-4.805234447121620E-002,5.935936421155930E-002,-8.891540169715881E-001,-4.389579594135284E-001,-4.805234447121620E-002,5.935936421155930E-002,-8.891540169715881E-001,-4.389579594135284E-001,
8.991666666666668E+008,-4.152909293770790E-002,5.530681833624840E-002,-8.917576074600220E-001,-4.093770086765289E-001,-4.152909293770790E-002,5.530681833624840E-002,-8.917576074600220E-001,-4.093770086765289E-001,
9.075333333333334E+008,-4.055364429950714E-002,4.802483320236206E-002,-8.998199701309204E-001,-3.811477720737457E-001,-4.055364429950714E-002,4.802483320236206E-002,-8.998199701309204E-001,-3.811477720737457E-001,
9.159000000000000E+008,-4.295281320810318E-002,4.256213456392288E-002,-9.248242974281311E-001,-3.618675470352173E-001,-4.295281320810318E-002,4.256213456392288E-002,-9.248242974281311E-001,-3.618675470352173E-001,
9.242666666666668E+008,-4.915980994701386E-002,4.311692342162132E-002,-9.151545763015747E-001,-3.399747610092163E-001,-4.915980994701386E-002,4.311692342162132E-002,-9.151545763015747E-001,-3.399747610092163E-001,
9.326333333333334E+008,-5.347406491637230E-002,4.558375105261803E-002,-9.330574870109558E-001,-3.204680383205414E-001,-5.347406491637230E-002,4.558375105261803E-002,-9.330574870109558E-001,-3.204680383205414E-001,
9.410000000000000E+008,-5.798011645674706E-002,5.015550181269646E-002,-9.457883238792419E-001,-2.932769358158112E-001,-5.798011645674706E-002,5.015550181269646E-002,-9.457883238792419E-001,-2.932769358158112E-001,
9.493666666666668E+008,-5.824123695492744E-002,6.005918234586716E-002,-9.490270018577576E-001,-2.595797479152679E-001,-5.824123695492744E-002,6.005918234586716E-002,-9.490270018577576E-001,-2.595797479152679E-001,
9.577333333333334E+008,-5.605845153331757E-002,7.050758600234985E-002,-9.581010937690735E-001,-2.480370849370956E-001,-5.605845153331757E-002,7.050758600234985E-002,-9.581010937690735E-001,-2.480370849370956E-001,
9.661000000000000E+008,-4.728895798325539E-002,7.773493230342865E-002,-9.566525220870972E-001,-2.046558260917664E-001,-4.728895798325539E-002,7.773493230342865E-002,-9.566525220870972E-001,-2.046558260917664E-001,
9.744666666666668E+008,-3.571122512221336E-002,7.963494956493378E-002,-9.545359611511231E-001,-1.980278939008713E-001,-3.571122512221336E-002,7.963494956493378E-002,-9.545359611511231E-001,-1.980278939008713E-001,
9.828333333333334E+008,-2.648209407925606E-002,8.115500956773758E-002,-9.722055196762085E-001,-1.753121018409729E-001,-2.648209407925606E-002,8.115500956773758E-002,-9.722055196762085E-001,-1.753121018409729E-001,
9.912000000000000E+008,-1.465957611799240E-002,7.606644183397293E-002,-9.737393856048584E-001,-1.518041342496872E-001,-1.465957611799240E-002,7.606644183397293E-002,-9.737393856048584E-001,-1.518041342496872E-001,
9.995666666666668E+008,-1.136476732790470E-002,6.956116110086441E-002,-9.899713397026062E-001,-1.140154972672463E-001,-1.136476732790470E-002,6.956116110086441E-002,-9.899713397026062E-001,-1.140154972672463E-001,
1.007933333333333E+009,-6.657558493316174E-003,6.018405780196190E-002,-1.003121256828308E+000,-1.029244288802147E-001,-6.657558493316174E-003,6.018405780196190E-002,-1.003121256828308E+000,-1.029244288802147E-001,
1.016300000000000E+009,-1.123564317822456E-002,5.542230233550072E-002,-9.952296614646912E-001,-6.943216174840927E-002,-1.123564317822456E-002,5.542230233550072E-002,-9.952296614646912E-001,-6.943216174840927E-002,
1.024666666666667E+009,-1.859753578901291E-002,5.108064413070679E-002,-9.866320490837097E-001,-4.692421108484268E-002,-1.859753578901291E-002,5.108064413070679E-002,-9.866320490837097E-001,-4.692421108484268E-002,
1.033033333333333E+009,-2.366218529641628E-002,5.563271418213844E-002,-9.964138865470886E-001,-1.836303994059563E-002,-2.366218529641628E-002,5.563271418213844E-002,-9.964138865470886E-001,-1.836303994059563E-002,
1.041400000000000E+009,-2.968079224228859E-002,6.117059662938118E-002,-9.941658973693848E-001,2.437809947878122E-003,-2.968079224228859E-002,6.117059662938118E-002,-9.941658973693848E-001,2.437809947878122E-003,
1.049766666666667E+009,-2.585686929523945E-002,7.073497027158737E-002,-9.804477095603943E-001,3.601615503430367E-002,-2.585686929523945E-002,7.073497027158737E-002,-9.804477095603943E-001,3.601615503430367E-002,
1.058133333333333E+009,-2.217734791338444E-002,8.053669333457947E-002,-9.831287264823914E-001,6.135860830545425E-002,-2.217734791338444E-002,8.053669333457947E-002,-9.831287264823914E-001,6.135860830545425E-002,
1.066500000000000E+009,-1.031311135739088E-002,8.509682863950729E-002,-9.989095926284790E-001,9.517055004835129E-002,-1.031311135739088E-002,8.509682863950729E-002,-9.989095926284790E-001,9.517055004835129E-002,
1.074866666666667E+009,4.052570555359125E-003,8.496102690696716E-002,-9.914608597755432E-001,1.237400397658348E-001,4.052570555359125E-003,8.496102690696716E-002,-9.914608597755432E-001,1.237400397658348E-001,
1.083233333333334E+009,1.380691956728697E-002,7.812459021806717E-002,-9.792491793632507E-001,1.357734054327011E-001,1.380691956728697E-002,7.812459021806717E-002,-9.792491793632507E-001,1.357734054327011E-001,
1.091600000000000E+009,2.088538743555546E-002,6.810078024864197E-002,-9.601308703422546E-001,1.598084121942520E-001,2.088538743555546E-002,6.810078024864197E-002,-9.601308703422546E-001,1.598084121942520E-001,
1.099966666666667E+009,2.117303572595120E-002,5.503595620393753E-002,-9.594390988349915E-001,1.970762461423874E-001,2.117303572595120E-002,5.503595620393753E-002,-9.594390988349915E-001,1.970762461423874E-001,
1.108333333333334E+009,1.415050029754639E-002,4.603113979101181E-002,-9.527122974395752E-001,2.044972330331802E-001,1.415050029754639E-002,4.603113979101181E-002,-9.527122974395752E-001,2.044972330331802E-001,
1.116700000000000E+009,4.034992773085833E-003,4.255489259958267E-002,-9.497228264808655E-001,2.353776991367340E-001,4.034992773085833E-003,4.255489259958267E-002,-9.497228264808655E-001,2.353776991367340E-001,
1.125066666666667E+009,-6.628416012972593E-003,4.762745648622513E-002,-9.519348740577698E-001,2.578408122062683E-001,-6.628416012972593E-003,4.762745648622513E-002,-9.519348740577698E-001,2.578408122062683E-001,
1.133433333333334E+009,-1.429541036486626E-002,5.736712738871574E-002,-9.478108286857605E-001,3.014935255050659E-001,-1.429541036486626E-002,5.736712738871574E-002,-9.478108286857605E-001,3.014935255050659E-001,
1.141800000000000E+009,-1.582455635070801E-002,7.099375128746033E-002,-9.244058132171631E-001,3.171910345554352E-001,-1.582455635070801E-002,7.099375128746033E-002,-9.244058132171631E-001,3.171910345554352E-001,
1.150166666666667E+009,-6.398961413651705E-003,8.516405522823334E-002,-9.167979359626770E-001,3.135781586170197E-001,-6.398961413651705E-003,8.516405522823334E-002,-9.167979359626770E-001,3.135781586170197E-001,
1.158533333333334E+009,9.678809903562069E-003,9.341653436422348E-002,-9.088601469993591E-001,3.593958616256714E-001,9.678809903562069E-003,9.341653436422348E-002,-9.088601469993591E-001,3.593958616256714E-001,
1.166900000000000E+009,2.887161262333393E-002,9.397590160369873E-002,-8.942178487777710E-001,3.768546581268311E-001,2.887161262333393E-002,9.397590160369873E-002,-8.942178487777710E-001,3.768546581268311E-001,
1.175266666666667E+009,4.558545351028442E-002,8.399165421724320E-002,-8.898327350616455E-001,4.071725308895111E-001,4.558545351028442E-002,8.399165421724320E-002,-8.898327350616455E-001,4.071725308895111E-001,
1.183633333333334E+009,5.903059244155884E-002,6.952121108770371E-002,-8.855958580970764E-001,4.226894974708557E-001,5.903059244155884E-002,6.952121108770371E-002,-8.855958580970764E-001,4.226894974708557E-001,
1.192000000000000E+009,6.035785377025604E-002,5.142953619360924E-002,-8.760421276092529E-001,4.435619413852692E-001,6.035785377025604E-002,5.142953619360924E-002,-8.760421276092529E-001,4.435619413852692E-001,
1.200366666666667E+009,5.228119716048241E-002,3.440903127193451E-002,-8.644554615020752E-001,4.682617783546448E-001,5.228119716048241E-002,3.440903127193451E-002,-8.644554615020752E-001,4.682617783546448E-001,
1.208733333333334E+009,3.758621588349342E-002,2.510310895740986E-002,-8.574618697166443E-001,5.151216983795166E-001,3.758621588349342E-002,2.510310895740986E-002,-8.574618697166443E-001,5.151216983795166E-001,
1.217100000000000E+009,2.302755415439606E-002,2.611831948161125E-002,-8.481098413467407E-001,5.155781507492065E-001,2.302755415439606E-002,2.611831948161125E-002,-8.481098413467407E-001,5.155781507492065E-001,
1.225466666666667E+009,1.043508853763342E-002,3.714879602193832E-002,-8.193464279174805E-001,5.465027689933777E-001,1.043508853763342E-002,3.714879602193832E-002,-8.193464279174805E-001,5.465027689933777E-001,
1.233833333333334E+009,6.215061061084271E-003,5.353668704628944E-002,-8.170515894889832E-001,5.594251751899719E-001,6.215061061084271E-003,5.353668704628944E-002,-8.170515894889832E-001,5.594251751899719E-001,
1.242200000000000E+009,1.497576478868723E-002,6.832551956176758E-002,-7.887813448905945E-001,5.888774394989014E-001,1.497576478868723E-002,6.832551956176758E-002,-7.887813448905945E-001,5.888774394989014E-001,
1.250566666666667E+009,2.805090695619583E-002,7.897284626960754E-002,-7.640170454978943E-001,5.986720919609070E-001,2.805090695619583E-002,7.897284626960754E-002,-7.640170454978943E-001,5.986720919609070E-001,
1.258933333333334E+009,4.885656759142876E-002,7.871483266353607E-002,-7.672830820083618E-001,6.228507161140442E-001,4.885656759142876E-002,7.871483266353607E-002,-7.672830820083618E-001,6.228507161140442E-001,
1.267300000000000E+009,6.877009570598602E-002,6.873436272144318E-002,-7.454308867454529E-001,6.347853541374207E-001,6.877009570598602E-002,6.873436272144318E-002,-7.454308867454529E-001,6.347853541374207E-001,
1.275666666666667E+009,7.888922840356827E-002,5.048503354191780E-002,-7.331523299217224E-001,6.401946544647217E-001,7.888922840356827E-002,5.048503354191780E-002,-7.331523299217224E-001,6.401946544647217E-001,
1.284033333333334E+009,8.223617821931839E-002,2.974667958915234E-002,-7.164477705955505E-001,6.851742267608643E-001,8.223617821931839E-002,2.974667958915234E-002,-7.164477705955505E-001,6.851742267608643E-001,
1.292400000000000E+009,7.269346714019775E-002,1.108867302536964E-002,-7.030409574508667E-001,6.872063279151917E-001,7.269346714019775E-002,1.108867302536964E-002,-7.030409574508667E-001,6.872063279151917E-001,
1.300766666666667E+009,5.461009591817856E-002,1.639817724935710E-003,-6.827477812767029E-001,7.146239280700684E-001,5.461009591817856E-002,1.639817724935710E-003,-6.827477812767029E-001,7.146239280700684E-001,
1.309133333333334E+009,3.459233418107033E-002,2.730137901380658E-003,-6.605898737907410E-001,7.328832149505615E-001,3.459233418107033E-002,2.730137901380658E-003,-6.605898737907410E-001,7.328832149505615E-001,
1.317500000000000E+009,1.969649828970432E-002,1.429077982902527E-002,-6.464094519615173E-001,7.589648365974426E-001,1.969649828970432E-002,1.429077982902527E-002,-6.464094519615173E-001,7.589648365974426E-001,
1.325866666666667E+009,1.542665157467127E-002,3.104677796363831E-002,-6.256228089332581E-001,7.764285206794739E-001,1.542665157467127E-002,3.104677796363831E-002,-6.256228089332581E-001,7.764285206794739E-001,
1.334233333333334E+009,2.316960878670216E-002,4.938481375575066E-002,-6.063605546951294E-001,7.810744047164917E-001,2.316960878670216E-002,4.938481375575066E-002,-6.063605546951294E-001,7.810744047164917E-001,
1.342600000000000E+009,3.909323364496231E-002,5.748777091503143E-002,-5.891371369361877E-001,8.010299205780029E-001,3.909323364496231E-002,5.748777091503143E-002,-5.891371369361877E-001,8.010299205780029E-001,
1.350966666666667E+009,6.022713705897331E-002,5.565810203552246E-002,-5.627468824386597E-001,8.120483160018921E-001,6.022713705897331E-002,5.565810203552246E-002,-5.627468824386597E-001,8.120483160018921E-001,
1.359333333333334E+009,7.589627057313919E-002,4.216220602393150E-002,-5.505869984626770E-001,8.087695837020874E-001,7.589627057313919E-002,4.216220602393150E-002,-5.505869984626770E-001,8.087695837020874E-001,
1.367700000000000E+009,8.180380612611771E-002,2.168317884206772E-002,-5.161921977996826E-001,8.321658968925476E-001,8.180380612611771E-002,2.168317884206772E-002,-5.161921977996826E-001,8.321658968925476E-001,
1.376066666666667E+009,7.930269092321396E-002,-5.708988173864782E-004,-5.040342211723328E-001,8.415331840515137E-001,7.930269092321396E-002,-5.708988173864782E-004,-5.040342211723328E-001,8.415331840515137E-001,
1.384433333333334E+009,6.359564512968063E-002,-1.629764214158058E-002,-4.894559383392334E-001,8.753152489662170E-001,6.359564512968063E-002,-1.629764214158058E-002,-4.894559383392334E-001,8.753152489662170E-001,
1.392800000000000E+009,4.332375153899193E-002,-1.925488747656345E-002,-4.664240181446075E-001,8.821522593498230E-001,4.332375153899193E-002,-1.925488747656345E-002,-4.664240181446075E-001,8.821522593498230E-001,
1.401166666666667E+009,2.290953323245049E-002,-1.215641386806965E-002,-4.379989802837372E-001,8.888024091720581E-001,2.290953323245049E-002,-1.215641386806965E-002,-4.379989802837372E-001,8.888024091720581E-001,
1.409533333333334E+009,1.005599647760391E-002,4.879418294876814E-003,-4.080927371978760E-001,9.021915197372437E-001,1.005599647760391E-002,4.879418294876814E-003,-4.080927371978760E-001,9.021915197372437E-001,
1.417900000000000E+009,1.059584971517324E-002,2.787126414477825E-002,-3.916484415531158E-001,9.007583260536194E-001,1.059584971517324E-002,2.787126414477825E-002,-3.916484415531158E-001,9.007583260536194E-001,
1.426266666666667E+009,2.152215689420700E-002,4.481298103928566E-002,-3.508563339710236E-001,9.271813631057739E-001,2.152215689420700E-002,4.481298103928566E-002,-3.508563339710236E-001,9.271813631057739E-001,
1.434633333333334E+009,4.201405867934227E-002,5.379465222358704E-002,-3.438070118427277E-001,9.205880165100098E-001,4.201405867934227E-002,5.379465222358704E-002,-3.438070118427277E-001,9.205880165100098E-001,
1.443000000000000E+009,6.300951540470123E-002,5.060891807079315E-002,-3.175397813320160E-001,9.291441440582275E-001,6.300951540470123E-002,5.060891807079315E-002,-3.175397813320160E-001,9.291441440582275E-001,
1.451366666666667E+009,8.004629611968994E-002,3.531491011381149E-002,-2.918179631233215E-001,9.269968867301941E-001,8.004629611968994E-002,3.531491011381149E-002,-2.918179631233215E-001,9.269968867301941E-001,
1.459733333333334E+009,8.735603839159012E-002,1.378878206014633E-002,-2.635370492935181E-001,9.598786234855652E-001,8.735603839159012E-002,1.378878206014633E-002,-2.635370492935181E-001,9.598786234855652E-001,
