% Version 1.00
%
%freq[Hz],re:Trc1_S11,im:Trc1_S11,re:Trc2_S21,im:Trc2_S21,re:Trc3_S11,im:Trc3_S11,re:Trc4_S21,im:Trc4_S21,
6.900000000000000E+008,-4.894609004259110E-002,4.038552194833756E-002,-5.054023265838623E-001,-8.513461947441101E-001,-4.894609004259110E-002,4.038552194833756E-002,-5.054023265838623E-001,-8.513461947441101E-001,
6.983666666666666E+008,-4.098076000809670E-002,4.053624719381332E-002,-5.283745527267456E-001,-8.408225178718567E-001,-4.098076000809670E-002,4.053624719381332E-002,-5.283745527267456E-001,-8.408225178718567E-001,
7.067333333333334E+008,-3.482859581708908E-002,3.642926737666130E-002,-5.557336211204529E-001,-8.147108554840088E-001,-3.482859581708908E-002,3.642926737666130E-002,-5.557336211204529E-001,-8.147108554840088E-001,
7.151000000000000E+008,-3.489473834633827E-002,2.856546454131603E-002,-5.883964896202087E-001,-8.108657598495483E-001,-3.489473834633827E-002,2.856546454131603E-002,-5.883964896202087E-001,-8.108657598495483E-001,
7.234666666666666E+008,-3.711231052875519E-002,2.361596189439297E-002,-6.060815453529358E-001,-7.943838834762573E-001,-3.711231052875519E-002,2.361596189439297E-002,-6.060815453529358E-001,-7.943838834762573E-001,
7.318333333333334E+008,-4.467197880148888E-002,2.127839252352715E-002,-6.185685992240906E-001,-7.798992991447449E-001,-4.467197880148888E-002,2.127839252352715E-002,-6.185685992240906E-001,-7.798992991447449E-001,
7.402000000000000E+008,-5.073069036006928E-002,2.370969764888287E-002,-6.318275928497315E-001,-7.550290226936340E-001,-5.073069036006928E-002,2.370969764888287E-002,-6.318275928497315E-001,-7.550290226936340E-001,
7.485666666666666E+008,-5.590288341045380E-002,3.067875839769840E-002,-6.606124043464661E-001,-7.385658621788025E-001,-5.590288341045380E-002,3.067875839769840E-002,-6.606124043464661E-001,-7.385658621788025E-001,
7.569333333333334E+008,-5.949919670820236E-002,4.093065485358238E-002,-6.788541078567505E-001,-7.274129390716553E-001,-5.949919670820236E-002,4.093065485358238E-002,-6.788541078567505E-001,-7.274129390716553E-001,
7.653000000000000E+008,-5.400525778532028E-002,4.986051842570305E-002,-6.898566484451294E-001,-7.068111896514893E-001,-5.400525778532028E-002,4.986051842570305E-002,-6.898566484451294E-001,-7.068111896514893E-001,
7.736666666666666E+008,-4.730607569217682E-002,5.629967525601387E-002,-6.993588805198669E-001,-7.020863890647888E-001,-4.730607569217682E-002,5.629967525601387E-002,-6.993588805198669E-001,-7.020863890647888E-001,
7.820333333333334E+008,-3.861782699823380E-002,6.031391397118568E-002,-7.329981327056885E-001,-6.742073297500610E-001,-3.861782699823380E-002,6.031391397118568E-002,-7.329981327056885E-001,-6.742073297500610E-001,
7.904000000000000E+008,-2.815448865294457E-002,5.920152366161346E-002,-7.413826584815979E-001,-6.553039550781250E-001,-2.815448865294457E-002,5.920152366161346E-002,-7.413826584815979E-001,-6.553039550781250E-001,
7.987666666666666E+008,-2.381141856312752E-002,5.391342192888260E-002,-7.466602921485901E-001,-6.382945775985718E-001,-2.381141856312752E-002,5.391342192888260E-002,-7.466602921485901E-001,-6.382945775985718E-001,
8.071333333333334E+008,-2.213825471699238E-002,4.768886044621468E-002,-7.724142074584961E-001,-6.085701584815979E-001,-2.213825471699238E-002,4.768886044621468E-002,-7.724142074584961E-001,-6.085701584815979E-001,
8.155000000000000E+008,-2.494025789201260E-002,4.061481356620789E-002,-7.997940182685852E-001,-5.964043736457825E-001,-2.494025789201260E-002,4.061481356620789E-002,-7.997940182685852E-001,-5.964043736457825E-001,
8.238666666666666E+008,-3.166719898581505E-002,3.869015723466873E-002,-8.087196946144104E-001,-5.727407932281494E-001,-3.166719898581505E-002,3.869015723466873E-002,-8.087196946144104E-001,-5.727407932281494E-001,
8.322333333333334E+008,-3.721080347895622E-002,4.038242995738983E-002,-8.149533271789551E-001,-5.567086935043335E-001,-3.721080347895622E-002,4.038242995738983E-002,-8.149533271789551E-001,-5.567086935043335E-001,
8.406000000000000E+008,-4.193760082125664E-002,4.395225271582604E-002,-8.281325101852417E-001,-5.311942696571350E-001,-4.193760082125664E-002,4.395225271582604E-002,-8.281325101852417E-001,-5.311942696571350E-001,
8.489666666666668E+008,-4.343837499618530E-002,5.501280352473259E-002,-8.388317823410034E-001,-5.015817880630493E-001,-4.343837499618530E-002,5.501280352473259E-002,-8.388317823410034E-001,-5.015817880630493E-001,
8.573333333333334E+008,-4.105846583843231E-002,6.297268718481064E-002,-8.433402180671692E-001,-4.730050563812256E-001,-4.105846583843231E-002,6.297268718481064E-002,-8.433402180671692E-001,-4.730050563812256E-001,
8.657000000000000E+008,-3.573046252131462E-002,7.015164196491242E-002,-8.706638813018799E-001,-4.748701751232147E-001,-3.573046252131462E-002,7.015164196491242E-002,-8.706638813018799E-001,-4.748701751232147E-001,
8.740666666666668E+008,-2.605113573372364E-002,7.554923743009567E-002,-8.759918808937073E-001,-4.520891606807709E-001,-2.605113573372364E-002,7.554923743009567E-002,-8.759918808937073E-001,-4.520891606807709E-001,
8.824333333333334E+008,-1.795493997633457E-002,7.695139944553375E-002,-8.940971493721008E-001,-4.273076355457306E-001,-1.795493997633457E-002,7.695139944553375E-002,-8.940971493721008E-001,-4.273076355457306E-001,
8.908000000000000E+008,-9.594125673174858E-003,7.332997769117355E-002,-9.070664644241333E-001,-4.093380272388458E-001,-9.594125673174858E-003,7.332997769117355E-002,-9.070664644241333E-001,-4.093380272388458E-001,
8.991666666666668E+008,-3.990885335952044E-003,6.748033314943314E-002,-9.074277877807617E-001,-3.828133046627045E-001,-3.990885335952044E-003,6.748033314943314E-002,-9.074277877807617E-001,-3.828133046627045E-001,
9.075333333333334E+008,-3.524394240230322E-003,5.976774170994759E-002,-9.203596711158752E-001,-3.564667105674744E-001,-3.524394240230322E-003,5.976774170994759E-002,-9.203596711158752E-001,-3.564667105674744E-001,
9.159000000000000E+008,-6.540912203490734E-003,5.441462248563767E-002,-9.431411623954773E-001,-3.324949145317078E-001,-6.540912203490734E-003,5.441462248563767E-002,-9.431411623954773E-001,-3.324949145317078E-001,
9.242666666666668E+008,-1.326584909111261E-002,5.446257814764977E-002,-9.340422749519348E-001,-3.094186186790466E-001,-1.326584909111261E-002,5.446257814764977E-002,-9.340422749519348E-001,-3.094186186790466E-001,
9.326333333333334E+008,-1.821831986308098E-002,5.699939653277397E-002,-9.493305087089539E-001,-2.921129763126373E-001,-1.821831986308098E-002,5.699939653277397E-002,-9.493305087089539E-001,-2.921129763126373E-001,
9.410000000000000E+008,-2.207756601274014E-002,6.117595732212067E-002,-9.587454199790955E-001,-2.600530683994293E-001,-2.207756601274014E-002,6.117595732212067E-002,-9.587454199790955E-001,-2.600530683994293E-001,
9.493666666666668E+008,-2.339397557079792E-002,7.093460857868195E-002,-9.653840661048889E-001,-2.281009107828140E-001,-2.339397557079792E-002,7.093460857868195E-002,-9.653840661048889E-001,-2.281009107828140E-001,
9.577333333333334E+008,-1.935476996004582E-002,8.037310838699341E-002,-9.699132442474365E-001,-2.140784710645676E-001,-1.935476996004582E-002,8.037310838699341E-002,-9.699132442474365E-001,-2.140784710645676E-001,
9.661000000000000E+008,-1.036738138645887E-002,8.689553290605545E-002,-9.716044068336487E-001,-1.734149754047394E-001,-1.036738138645887E-002,8.689553290605545E-002,-9.716044068336487E-001,-1.734149754047394E-001,
9.744666666666668E+008,1.572350447531790E-004,8.703934401273727E-002,-9.668987393379211E-001,-1.633938103914261E-001,1.572350447531790E-004,8.703934401273727E-002,-9.668987393379211E-001,-1.633938103914261E-001,
9.828333333333334E+008,1.009801030158997E-002,8.748188614845276E-002,-9.852840900421143E-001,-1.417412608861923E-001,1.009801030158997E-002,8.748188614845276E-002,-9.852840900421143E-001,-1.417412608861923E-001,
9.912000000000000E+008,2.099343203008175E-002,8.116257190704346E-002,-9.801867008209229E-001,-1.198250427842140E-001,2.099343203008175E-002,8.116257190704346E-002,-9.801867008209229E-001,-1.198250427842140E-001,
9.995666666666668E+008,2.464636415243149E-002,7.360370457172394E-002,-9.951475858688355E-001,-8.400317281484604E-002,2.464636415243149E-002,7.360370457172394E-002,-9.951475858688355E-001,-8.400317281484604E-002,
1.007933333333333E+009,2.818258665502071E-002,6.423611938953400E-002,-1.012955665588379E+000,-6.591548770666122E-002,2.818258665502071E-002,6.423611938953400E-002,-1.012955665588379E+000,-6.591548770666122E-002,
1.016300000000000E+009,2.236124873161316E-002,5.794470757246018E-002,-9.964333176612854E-001,-3.832782432436943E-002,2.236124873161316E-002,5.794470757246018E-002,-9.964333176612854E-001,-3.832782432436943E-002,
1.024666666666667E+009,1.438733935356140E-002,5.432651937007904E-002,-9.913404583930969E-001,-1.387084648013115E-002,1.438733935356140E-002,5.432651937007904E-002,-9.913404583930969E-001,-1.387084648013115E-002,
1.033033333333333E+009,9.310081601142883E-003,5.898510664701462E-002,-9.962477087974548E-001,1.358778495341539E-002,9.310081601142883E-003,5.898510664701462E-002,-9.962477087974548E-001,1.358778495341539E-002,
1.041400000000000E+009,2.706779632717371E-003,6.382901221513748E-002,-9.965823292732239E-001,3.024641051888466E-002,2.706779632717371E-003,6.382901221513748E-002,-9.965823292732239E-001,3.024641051888466E-002,
1.049766666666667E+009,6.457180250436068E-003,7.335888594388962E-002,-9.833117723464966E-001,7.005219161510468E-002,6.457180250436068E-003,7.335888594388962E-002,-9.833117723464966E-001,7.005219161510468E-002,
1.058133333333333E+009,1.128086633980274E-002,8.237016946077347E-002,-9.852079749107361E-001,9.186248481273651E-002,1.128086633980274E-002,8.237016946077347E-002,-9.852079749107361E-001,9.186248481273651E-002,
1.066500000000000E+009,2.274323441088200E-002,8.621986210346222E-002,-9.981578588485718E-001,1.277967691421509E-001,2.274323441088200E-002,8.621986210346222E-002,-9.981578588485718E-001,1.277967691421509E-001,
1.074866666666667E+009,3.669875860214233E-002,8.451237529516220E-002,-9.919219613075256E-001,1.451540887355804E-001,3.669875860214233E-002,8.451237529516220E-002,-9.919219613075256E-001,1.451540887355804E-001,
1.083233333333334E+009,4.569937661290169E-002,7.592108845710754E-002,-9.764702320098877E-001,1.693936288356781E-001,4.569937661290169E-002,7.592108845710754E-002,-9.764702320098877E-001,1.693936288356781E-001,
1.091600000000000E+009,5.240171775221825E-002,6.506273150444031E-002,-9.587455391883850E-001,1.875331252813339E-001,5.240171775221825E-002,6.506273150444031E-002,-9.587455391883850E-001,1.875331252813339E-001,
1.099966666666667E+009,5.127501860260963E-002,5.132234841585159E-002,-9.524751305580139E-001,2.270358204841614E-001,5.127501860260963E-002,5.132234841585159E-002,-9.524751305580139E-001,2.270358204841614E-001,
1.108333333333334E+009,4.285175353288651E-002,4.354622960090637E-002,-9.537071585655212E-001,2.342677563428879E-001,4.285175353288651E-002,4.354622960090637E-002,-9.537071585655212E-001,2.342677563428879E-001,
1.116700000000000E+009,3.247119113802910E-002,4.059853032231331E-002,-9.457132220268250E-001,2.667633891105652E-001,3.247119113802910E-002,4.059853032231331E-002,-9.457132220268250E-001,2.667633891105652E-001,
1.125066666666667E+009,2.143541537225246E-002,4.581126570701599E-002,-9.463449120521545E-001,2.848706245422363E-001,2.143541537225246E-002,4.581126570701599E-002,-9.463449120521545E-001,2.848706245422363E-001,
1.133433333333334E+009,1.358643360435963E-002,5.573002994060516E-002,-9.459146857261658E-001,3.305000960826874E-001,1.358643360435963E-002,5.573002994060516E-002,-9.459146857261658E-001,3.305000960826874E-001,
1.141800000000000E+009,1.336640585213900E-002,6.927745789289475E-002,-9.193071126937866E-001,3.422857820987701E-001,1.336640585213900E-002,6.927745789289475E-002,-9.193071126937866E-001,3.422857820987701E-001,
1.150166666666667E+009,2.276393957436085E-002,8.362022042274475E-002,-9.095914959907532E-001,3.459098041057587E-001,2.276393957436085E-002,8.362022042274475E-002,-9.095914959907532E-001,3.459098041057587E-001,
1.158533333333334E+009,3.923757746815682E-002,9.022864699363709E-002,-9.026166796684265E-001,3.860173821449280E-001,3.923757746815682E-002,9.022864699363709E-002,-9.026166796684265E-001,3.860173821449280E-001,
1.166900000000000E+009,5.871295556426048E-002,8.910813182592392E-002,-8.863726854324341E-001,4.057170748710632E-001,5.871295556426048E-002,8.910813182592392E-002,-8.863726854324341E-001,4.057170748710632E-001,
1.175266666666667E+009,7.476384937763214E-002,7.786975055932999E-002,-8.815399408340454E-001,4.316956102848053E-001,7.476384937763214E-002,7.786975055932999E-002,-8.815399408340454E-001,4.316956102848053E-001,
1.183633333333334E+009,8.686142414808273E-002,6.208264827728272E-002,-8.782377839088440E-001,4.471809864044190E-001,8.686142414808273E-002,6.208264827728272E-002,-8.782377839088440E-001,4.471809864044190E-001,
1.192000000000000E+009,8.668550848960877E-002,4.272532835602760E-002,-8.670047521591187E-001,4.693487286567688E-001,8.668550848960877E-002,4.272532835602760E-002,-8.670047521591187E-001,4.693487286567688E-001,
1.200366666666667E+009,7.681503891944885E-002,2.631144039332867E-002,-8.543389439582825E-001,4.906515777111054E-001,7.681503891944885E-002,2.631144039332867E-002,-8.543389439582825E-001,4.906515777111054E-001,
1.208733333333334E+009,6.204284355044365E-002,1.789103075861931E-002,-8.473165035247803E-001,5.351740717887878E-001,6.204284355044365E-002,1.789103075861931E-002,-8.473165035247803E-001,5.351740717887878E-001,
1.217100000000000E+009,4.611219093203545E-002,1.930489577353001E-002,-8.418534398078919E-001,5.440231561660767E-001,4.611219093203545E-002,1.930489577353001E-002,-8.418534398078919E-001,5.440231561660767E-001,
1.225466666666667E+009,3.374213352799416E-002,3.131253272294998E-002,-8.081179857254028E-001,5.667646527290344E-001,3.374213352799416E-002,3.131253272294998E-002,-8.081179857254028E-001,5.667646527290344E-001,
1.233833333333334E+009,2.999888546764851E-002,4.792603105306625E-002,-8.037080764770508E-001,5.788965225219727E-001,2.999888546764851E-002,4.792603105306625E-002,-8.037080764770508E-001,5.788965225219727E-001,
1.242200000000000E+009,3.895501792430878E-002,6.206058710813522E-002,-7.773132324218750E-001,6.116471290588379E-001,3.895501792430878E-002,6.206058710813522E-002,-7.773132324218750E-001,6.116471290588379E-001,
1.250566666666667E+009,5.249883979558945E-002,7.177545875310898E-002,-7.548434138298035E-001,6.192630529403687E-001,5.249883979558945E-002,7.177545875310898E-002,-7.548434138298035E-001,6.192630529403687E-001,
1.258933333333334E+009,7.320839911699295E-002,7.109974324703217E-002,-7.505407929420471E-001,6.396653056144714E-001,7.320839911699295E-002,7.109974324703217E-002,-7.505407929420471E-001,6.396653056144714E-001,
1.267300000000000E+009,9.259397536516190E-002,5.934083461761475E-002,-7.308892011642456E-001,6.539224982261658E-001,9.259397536516190E-002,5.934083461761475E-002,-7.308892011642456E-001,6.539224982261658E-001,
1.275666666666667E+009,1.015233322978020E-001,4.070123657584190E-002,-7.179993391036987E-001,6.614843010902405E-001,1.015233322978020E-001,4.070123657584190E-002,-7.179993391036987E-001,6.614843010902405E-001,
1.284033333333334E+009,1.031372621655464E-001,1.914590969681740E-002,-7.012573480606079E-001,7.025900483131409E-001,1.031372621655464E-001,1.914590969681740E-002,-7.012573480606079E-001,7.025900483131409E-001,
1.292400000000000E+009,9.297116845846176E-002,1.374358835164458E-004,-6.907712221145630E-001,7.084704637527466E-001,9.297116845846176E-002,1.374358835164458E-004,-6.907712221145630E-001,7.084704637527466E-001,
1.300766666666667E+009,7.331868261098862E-002,-8.029627613723278E-003,-6.676232814788818E-001,7.310620546340942E-001,7.331868261098862E-002,-8.029627613723278E-003,-6.676232814788818E-001,7.310620546340942E-001,
1.309133333333334E+009,5.337354913353920E-002,-6.332782097160816E-003,-6.423064470291138E-001,7.477684617042542E-001,5.337354913353920E-002,-6.332782097160816E-003,-6.423064470291138E-001,7.477684617042542E-001,
1.317500000000000E+009,3.938186168670654E-002,6.085880100727081E-003,-6.288323998451233E-001,7.790258526802063E-001,3.938186168670654E-002,6.085880100727081E-003,-6.288323998451233E-001,7.790258526802063E-001,
1.325866666666667E+009,3.550002351403236E-002,2.342679910361767E-002,-6.082518100738525E-001,7.918558716773987E-001,3.550002351403236E-002,2.342679910361767E-002,-6.082518100738525E-001,7.918558716773987E-001,
1.334233333333334E+009,4.411778226494789E-002,4.059876501560211E-002,-5.896317362785339E-001,7.965149283409119E-001,4.411778226494789E-002,4.059876501560211E-002,-5.896317362785339E-001,7.965149283409119E-001,
1.342600000000000E+009,6.023827567696571E-002,4.931996017694473E-002,-5.720457434654236E-001,8.151436448097229E-001,6.023827567696571E-002,4.931996017694473E-002,-5.720457434654236E-001,8.151436448097229E-001,
1.350966666666667E+009,8.055622875690460E-002,4.573416709899902E-002,-5.424912571907044E-001,8.250336647033691E-001,8.055622875690460E-002,4.573416709899902E-002,-5.424912571907044E-001,8.250336647033691E-001,
1.359333333333334E+009,9.509564936161041E-002,3.147822245955467E-002,-5.319038033485413E-001,8.245766758918762E-001,9.509564936161041E-002,3.147822245955467E-002,-5.319038033485413E-001,8.245766758918762E-001,
1.367700000000000E+009,1.006131321191788E-001,1.090091560035944E-002,-4.989367127418518E-001,8.445314168930054E-001,1.006131321191788E-001,1.090091560035944E-002,-4.989367127418518E-001,8.445314168930054E-001,
1.376066666666667E+009,9.614937752485275E-002,-1.183528825640678E-002,-4.839158058166504E-001,8.524072170257568E-001,9.614937752485275E-002,-1.183528825640678E-002,-4.839158058166504E-001,8.524072170257568E-001,
1.384433333333334E+009,7.904271036386490E-002,-2.740974351763725E-002,-4.680652320384979E-001,8.835075497627258E-001,7.904271036386490E-002,-2.740974351763725E-002,-4.680652320384979E-001,8.835075497627258E-001,
1.392800000000000E+009,5.839955434203148E-002,-2.974508702754974E-002,-4.450305402278900E-001,8.925878405570984E-001,5.839955434203148E-002,-2.974508702754974E-002,-4.450305402278900E-001,8.925878405570984E-001,
1.401166666666667E+009,3.830856457352638E-002,-2.185555361211300E-002,-4.203353226184845E-001,8.984999656677246E-001,3.830856457352638E-002,-2.185555361211300E-002,-4.203353226184845E-001,8.984999656677246E-001,
1.409533333333334E+009,2.584601938724518E-002,-4.668175708502531E-003,-3.904607594013214E-001,9.152095317840576E-001,2.584601938724518E-002,-4.668175708502531E-003,-3.904607594013214E-001,9.152095317840576E-001,
1.417900000000000E+009,2.723746560513973E-002,1.888561621308327E-002,-3.716522157192230E-001,9.105126857757568E-001,2.723746560513973E-002,1.888561621308327E-002,-3.716522157192230E-001,9.105126857757568E-001,
1.426266666666667E+009,3.883533552289009E-002,3.560807928442955E-002,-3.340643346309662E-001,9.358173608779907E-001,3.883533552289009E-002,3.560807928442955E-002,-3.340643346309662E-001,9.358173608779907E-001,
1.434633333333334E+009,5.957641825079918E-002,4.337307810783386E-002,-3.231619894504547E-001,9.296635985374451E-001,5.957641825079918E-002,4.337307810783386E-002,-3.231619894504547E-001,9.296635985374451E-001,
1.443000000000000E+009,8.002208918333054E-002,3.975414857268333E-002,-3.000294864177704E-001,9.376177191734314E-001,8.002208918333054E-002,3.975414857268333E-002,-3.000294864177704E-001,9.376177191734314E-001,
1.451366666666667E+009,9.592241048812866E-002,2.370110899209976E-002,-2.735946476459503E-001,9.366257786750794E-001,9.592241048812866E-002,2.370110899209976E-002,-2.735946476459503E-001,9.366257786750794E-001,
1.459733333333334E+009,1.019054949283600E-001,2.639304148033261E-003,-2.480584233999252E-001,9.652667641639710E-001,1.019054949283600E-001,2.639304148033261E-003,-2.480584233999252E-001,9.652667641639710E-001,
