% Version 1.00
%
%freq[Hz],re:Trc1_S11,im:Trc1_S11,re:Trc2_S21,im:Trc2_S21,re:Trc3_S11,im:Trc3_S11,re:Trc4_S21,im:Trc4_S21,
6.900000000000000E+008,-1.552888564765453E-002,1.874071359634399E-002,-4.718534350395203E-001,-8.745574355125427E-001,-1.552888564765453E-002,1.874071359634399E-002,-4.718534350395203E-001,-8.745574355125427E-001,
6.983666666666666E+008,-7.273561786860228E-003,1.856546290218830E-002,-4.998529255390167E-001,-8.663149476051331E-001,-7.273561786860228E-003,1.856546290218830E-002,-4.998529255390167E-001,-8.663149476051331E-001,
7.067333333333334E+008,-8.217464201152325E-004,1.327966060489416E-002,-5.225844979286194E-001,-8.393023014068604E-001,-8.217464201152325E-004,1.327966060489416E-002,-5.225844979286194E-001,-8.393023014068604E-001,
7.151000000000000E+008,-6.654441822320223E-004,4.628506954759359E-003,-5.575414299964905E-001,-8.386005759239197E-001,-6.654441822320223E-004,4.628506954759359E-003,-5.575414299964905E-001,-8.386005759239197E-001,
7.234666666666666E+008,-2.129432512447238E-003,-1.807279419153929E-003,-5.707983970642090E-001,-8.245799541473389E-001,-2.129432512447238E-003,-1.807279419153929E-003,-5.707983970642090E-001,-8.245799541473389E-001,
7.318333333333334E+008,-9.392212145030499E-003,-5.257972516119480E-003,-5.887150764465332E-001,-8.091877698898315E-001,-9.392212145030499E-003,-5.257972516119480E-003,-5.887150764465332E-001,-8.091877698898315E-001,
7.402000000000000E+008,-1.648037135601044E-002,-5.265828687697649E-003,-5.977783799171448E-001,-7.851171493530273E-001,-1.648037135601044E-002,-5.265828687697649E-003,-5.977783799171448E-001,-7.851171493530273E-001,
7.485666666666666E+008,-2.233242802321911E-002,-2.255890103697311E-005,-6.295037865638733E-001,-7.731822729110718E-001,-2.233242802321911E-002,-2.255890103697311E-005,-6.295037865638733E-001,-7.731822729110718E-001,
7.569333333333334E+008,-2.684511058032513E-002,8.362677879631519E-003,-6.482374072074890E-001,-7.613212466239929E-001,-2.684511058032513E-002,8.362677879631519E-003,-6.482374072074890E-001,-7.613212466239929E-001,
7.653000000000000E+008,-2.273804880678654E-002,1.633016765117645E-002,-6.579061746597290E-001,-7.447499632835388E-001,-2.273804880678654E-002,1.633016765117645E-002,-6.579061746597290E-001,-7.447499632835388E-001,
7.736666666666666E+008,-1.727750711143017E-002,2.236834168434143E-002,-6.730997562408447E-001,-7.387256026268005E-001,-1.727750711143017E-002,2.236834168434143E-002,-6.730997562408447E-001,-7.387256026268005E-001,
7.820333333333334E+008,-9.269972331821919E-003,2.584835141897202E-002,-7.046361565589905E-001,-7.112898230552673E-001,-9.269972331821919E-003,2.584835141897202E-002,-7.046361565589905E-001,-7.112898230552673E-001,
7.904000000000000E+008,4.147695726715028E-004,2.415530197322369E-002,-7.146226167678833E-001,-6.951238512992859E-001,4.147695726715028E-004,2.415530197322369E-002,-7.146226167678833E-001,-6.951238512992859E-001,
7.987666666666666E+008,4.476104397326708E-003,1.761147566139698E-002,-7.215498685836792E-001,-6.751860976219177E-001,4.476104397326708E-003,1.761147566139698E-002,-7.215498685836792E-001,-6.751860976219177E-001,
8.071333333333334E+008,7.567251101136208E-003,1.019902899861336E-002,-7.463891506195068E-001,-6.433602571487427E-001,7.567251101136208E-003,1.019902899861336E-002,-7.463891506195068E-001,-6.433602571487427E-001,
8.155000000000000E+008,3.719541011378169E-003,2.699141157791019E-003,-7.731376290321350E-001,-6.374027729034424E-001,3.719541011378169E-003,2.699141157791019E-003,-7.731376290321350E-001,-6.374027729034424E-001,
8.238666666666666E+008,-2.803768264129758E-003,-8.834248292259872E-004,-7.792750000953674E-001,-6.140349507331848E-001,-2.803768264129758E-003,-8.834248292259872E-004,-7.792750000953674E-001,-6.140349507331848E-001,
8.322333333333334E+008,-9.175253100693226E-003,-1.111301360651851E-003,-7.889169454574585E-001,-5.971939563751221E-001,-9.175253100693226E-003,-1.111301360651851E-003,-7.889169454574585E-001,-5.971939563751221E-001,
8.406000000000000E+008,-1.467922609299421E-002,9.763145935721695E-004,-8.020449876785278E-001,-5.756664872169495E-001,-1.467922609299421E-002,9.763145935721695E-004,-8.020449876785278E-001,-5.756664872169495E-001,
8.489666666666668E+008,-1.784265227615833E-002,1.042622514069080E-002,-8.170223832130432E-001,-5.473781228065491E-001,-1.784265227615833E-002,1.042622514069080E-002,-8.170223832130432E-001,-5.473781228065491E-001,
8.573333333333334E+008,-1.780558750033379E-002,1.721485517919064E-002,-8.182304501533508E-001,-5.172396302223206E-001,-1.780558750033379E-002,1.721485517919064E-002,-8.182304501533508E-001,-5.172396302223206E-001,
8.657000000000000E+008,-1.415089052170515E-002,2.487377449870110E-002,-8.488008379936218E-001,-5.240482091903687E-001,-1.415089052170515E-002,2.487377449870110E-002,-8.488008379936218E-001,-5.240482091903687E-001,
8.740666666666668E+008,-6.745670456439257E-003,2.910833805799484E-002,-8.525824546813965E-001,-4.974616169929504E-001,-6.745670456439257E-003,2.910833805799484E-002,-8.525824546813965E-001,-4.974616169929504E-001,
8.824333333333334E+008,1.146940747275949E-003,2.999793365597725E-002,-8.748325109481812E-001,-4.731787741184235E-001,1.146940747275949E-003,2.999793365597725E-002,-8.748325109481812E-001,-4.731787741184235E-001,
8.908000000000000E+008,8.587866090238094E-003,2.605543285608292E-002,-8.904991149902344E-001,-4.569527804851532E-001,8.587866090238094E-003,2.605543285608292E-002,-8.904991149902344E-001,-4.569527804851532E-001,
8.991666666666668E+008,1.361582148820162E-002,1.934854499995709E-002,-8.866191506385803E-001,-4.305817186832428E-001,1.361582148820162E-002,1.934854499995709E-002,-8.866191506385803E-001,-4.305817186832428E-001,
9.075333333333334E+008,1.378470379859209E-002,1.052076835185289E-002,-9.033522605895996E-001,-4.049055576324463E-001,1.378470379859209E-002,1.052076835185289E-002,-9.033522605895996E-001,-4.049055576324463E-001,
9.159000000000000E+008,1.134559325873852E-002,3.901046235114336E-003,-9.264888763427734E-001,-3.836690485477448E-001,1.134559325873852E-002,3.901046235114336E-003,-9.264888763427734E-001,-3.836690485477448E-001,
9.242666666666668E+008,3.818207187578082E-003,2.542102010920644E-003,-9.182129502296448E-001,-3.602582216262817E-001,3.818207187578082E-003,2.542102010920644E-003,-9.182129502296448E-001,-3.602582216262817E-001,
9.326333333333334E+008,-2.181017072871327E-003,3.206020221114159E-003,-9.348298311233521E-001,-3.487233817577362E-001,-2.181017072871327E-003,3.206020221114159E-003,-9.348298311233521E-001,-3.487233817577362E-001,
9.410000000000000E+008,-8.109263144433498E-003,6.590797565877438E-003,-9.488182663917542E-001,-3.120490610599518E-001,-8.109263144433498E-003,6.590797565877438E-003,-9.488182663917542E-001,-3.120490610599518E-001,
9.493666666666668E+008,-1.193438284099102E-002,1.492630783468485E-002,-9.548906087875366E-001,-2.825515866279602E-001,-1.193438284099102E-002,1.492630783468485E-002,-9.548906087875366E-001,-2.825515866279602E-001,
9.577333333333334E+008,-1.052228640764952E-002,2.336215414106846E-002,-9.603866338729858E-001,-2.720545232295990E-001,-1.052228640764952E-002,2.336215414106846E-002,-9.603866338729858E-001,-2.720545232295990E-001,
9.661000000000000E+008,-3.562899306416512E-003,2.980201691389084E-002,-9.629498720169067E-001,-2.290920615196228E-001,-3.562899306416512E-003,2.980201691389084E-002,-9.629498720169067E-001,-2.290920615196228E-001,
9.744666666666668E+008,5.428440868854523E-003,3.140739351511002E-002,-9.628514051437378E-001,-2.180816084146500E-001,5.428440868854523E-003,3.140739351511002E-002,-9.628514051437378E-001,-2.180816084146500E-001,
9.828333333333334E+008,1.359942555427551E-002,3.207777440547943E-002,-9.794839620590210E-001,-1.979167908430100E-001,1.359942555427551E-002,3.207777440547943E-002,-9.794839620590210E-001,-1.979167908430100E-001,
9.912000000000000E+008,2.379464916884899E-002,2.593515068292618E-002,-9.777153134346008E-001,-1.763867288827896E-001,2.379464916884899E-002,2.593515068292618E-002,-9.777153134346008E-001,-1.763867288827896E-001,
9.995666666666668E+008,2.695944160223007E-002,1.726178824901581E-002,-9.910602569580078E-001,-1.429885327816010E-001,2.695944160223007E-002,1.726178824901581E-002,-9.910602569580078E-001,-1.429885327816010E-001,
1.007933333333333E+009,3.033574484288693E-002,7.103091105818749E-003,-1.008451223373413E+000,-1.243894398212433E-001,3.033574484288693E-002,7.103091105818749E-003,-1.008451223373413E+000,-1.243894398212433E-001,
1.016300000000000E+009,2.323215082287788E-002,1.490378199378029E-004,-9.970858693122864E-001,-9.999594837427139E-002,2.323215082287788E-002,1.490378199378029E-004,-9.970858693122864E-001,-9.999594837427139E-002,
1.024666666666667E+009,1.531228702515364E-002,-5.366708151996136E-003,-9.929380416870117E-001,-7.475891709327698E-002,1.531228702515364E-002,-5.366708151996136E-003,-9.929380416870117E-001,-7.475891709327698E-002,
1.033033333333333E+009,8.178521879017353E-003,-2.029106952250004E-003,-1.000794172286987E+000,-4.744698852300644E-002,8.178521879017353E-003,-2.029106952250004E-003,-1.000794172286987E+000,-4.744698852300644E-002,
1.041400000000000E+009,-1.360579917673022E-004,2.488826168701053E-003,-1.000143527984619E+000,-2.717303857207298E-002,-1.360579917673022E-004,2.488826168701053E-003,-1.000143527984619E+000,-2.717303857207298E-002,
1.049766666666667E+009,7.249523150676396E-006,1.194968447089195E-002,-9.899120926856995E-001,7.254315074533224E-003,7.249523150676396E-006,1.194968447089195E-002,-9.899120926856995E-001,7.254315074533224E-003,
1.058133333333333E+009,1.900315750390291E-003,2.089869976043701E-002,-9.939513802528381E-001,3.084388747811317E-002,1.900315750390291E-003,2.089869976043701E-002,-9.939513802528381E-001,3.084388747811317E-002,
1.066500000000000E+009,1.132510136812925E-002,2.593175135552883E-002,-1.011506676673889E+000,6.371659785509110E-002,1.132510136812925E-002,2.593175135552883E-002,-1.011506676673889E+000,6.371659785509110E-002,
1.074866666666667E+009,2.358513884246349E-002,2.545313537120819E-002,-1.005075812339783E+000,8.332519978284836E-002,2.358513884246349E-002,2.545313537120819E-002,-1.005075812339783E+000,8.332519978284836E-002,
1.083233333333334E+009,3.165717050433159E-002,1.774084009230137E-002,-9.912936091423035E-001,1.074417382478714E-001,3.165717050433159E-002,1.774084009230137E-002,-9.912936091423035E-001,1.074417382478714E-001,
1.091600000000000E+009,3.808974847197533E-002,7.453994825482369E-003,-9.745153784751892E-001,1.281372606754303E-001,3.808974847197533E-002,7.453994825482369E-003,-9.745153784751892E-001,1.281372606754303E-001,
1.099966666666667E+009,3.742248564958572E-002,-7.100424263626337E-003,-9.702229499816895E-001,1.660943627357483E-001,3.742248564958572E-002,-7.100424263626337E-003,-9.702229499816895E-001,1.660943627357483E-001,
1.108333333333334E+009,2.883629128336906E-002,-1.665589213371277E-002,-9.667924046516419E-001,1.745164990425110E-001,2.883629128336906E-002,-1.665589213371277E-002,-9.667924046516419E-001,1.745164990425110E-001,
1.116700000000000E+009,1.706420257687569E-002,-2.116424404084683E-002,-9.677597880363464E-001,2.054874747991562E-001,1.706420257687569E-002,-2.116424404084683E-002,-9.677597880363464E-001,2.054874747991562E-001,
1.125066666666667E+009,3.928701858967543E-003,-1.837367005646229E-002,-9.670213460922241E-001,2.220782935619354E-001,3.928701858967543E-003,-1.837367005646229E-002,-9.670213460922241E-001,2.220782935619354E-001,
1.133433333333334E+009,-6.839265581220388E-003,-8.801443502306938E-003,-9.665026068687439E-001,2.665323317050934E-001,-6.839265581220388E-003,-8.801443502306938E-003,-9.665026068687439E-001,2.665323317050934E-001,
1.141800000000000E+009,-1.173708122223616E-002,4.686120897531509E-003,-9.463399648666382E-001,2.820214927196503E-001,-1.173708122223616E-002,4.686120897531509E-003,-9.463399648666382E-001,2.820214927196503E-001,
1.150166666666667E+009,-5.372896324843168E-003,2.032410539686680E-002,-9.395778775215149E-001,2.820633947849274E-001,-5.372896324843168E-003,2.032410539686680E-002,-9.395778775215149E-001,2.820633947849274E-001,
1.158533333333334E+009,7.736590225249529E-003,2.918935753405094E-002,-9.347716569900513E-001,3.244501352310181E-001,7.736590225249529E-003,2.918935753405094E-002,-9.347716569900513E-001,3.244501352310181E-001,
1.166900000000000E+009,2.494787052273750E-002,3.143537789583206E-002,-9.207879304885864E-001,3.460589945316315E-001,2.494787052273750E-002,3.143537789583206E-002,-9.207879304885864E-001,3.460589945316315E-001,
1.175266666666667E+009,4.098110273480415E-002,2.212229743599892E-002,-9.146459102630615E-001,3.756481409072876E-001,4.098110273480415E-002,2.212229743599892E-002,-9.146459102630615E-001,3.756481409072876E-001,
1.183633333333334E+009,5.313840508460999E-002,8.377743884921074E-003,-9.126834869384766E-001,3.876729011535645E-001,5.313840508460999E-002,8.377743884921074E-003,-9.126834869384766E-001,3.876729011535645E-001,
1.192000000000000E+009,5.369281396269798E-002,-1.082007028162479E-002,-9.013727903366089E-001,4.125580787658691E-001,5.369281396269798E-002,-1.082007028162479E-002,-9.013727903366089E-001,4.125580787658691E-001,
1.200366666666667E+009,4.483537375926971E-002,-2.870157361030579E-002,-8.892866373062134E-001,4.324915111064911E-001,4.483537375926971E-002,-2.870157361030579E-002,-8.892866373062134E-001,4.324915111064911E-001,
1.208733333333334E+009,2.888281829655170E-002,-3.915752470493317E-002,-8.874346613883972E-001,4.734706282615662E-001,2.888281829655170E-002,-3.915752470493317E-002,-8.874346613883972E-001,4.734706282615662E-001,
1.217100000000000E+009,1.119318138808012E-002,-3.901263698935509E-002,-8.805602788925171E-001,4.821283519268036E-001,1.119318138808012E-002,-3.901263698935509E-002,-8.805602788925171E-001,4.821283519268036E-001,
1.225466666666667E+009,-3.784660017117858E-003,-2.980338037014008E-002,-8.508397936820984E-001,5.091919302940369E-001,-3.784660017117858E-003,-2.980338037014008E-002,-8.508397936820984E-001,5.091919302940369E-001,
1.233833333333334E+009,-1.186386402696371E-002,-1.271076966077089E-002,-8.496894240379334E-001,5.190405249595642E-001,-1.186386402696371E-002,-1.271076966077089E-002,-8.496894240379334E-001,5.190405249595642E-001,
1.242200000000000E+009,-7.009069900959730E-003,3.642682917416096E-003,-8.266755342483521E-001,5.550028681755066E-001,-7.009069900959730E-003,3.642682917416096E-003,-8.266755342483521E-001,5.550028681755066E-001,
1.250566666666667E+009,2.859819447621703E-003,1.654923707246780E-002,-8.066952824592590E-001,5.605114102363586E-001,2.859819447621703E-003,1.654923707246780E-002,-8.066952824592590E-001,5.605114102363586E-001,
1.258933333333334E+009,2.254952676594257E-002,1.964881271123886E-002,-8.050830364227295E-001,5.865980982780457E-001,2.254952676594257E-002,1.964881271123886E-002,-8.050830364227295E-001,5.865980982780457E-001,
1.267300000000000E+009,4.079970717430115E-002,1.176769658923149E-002,-7.856729626655579E-001,6.027118563652039E-001,4.079970717430115E-002,1.176769658923149E-002,-7.856729626655579E-001,6.027118563652039E-001,
1.275666666666667E+009,5.088511109352112E-002,-5.359869915992022E-003,-7.713346481323242E-001,6.117461323738098E-001,5.088511109352112E-002,-5.359869915992022E-003,-7.713346481323242E-001,6.117461323738098E-001,
1.284033333333334E+009,5.382893234491348E-002,-2.621511369943619E-002,-7.557577490806580E-001,6.564918756484985E-001,5.382893234491348E-002,-2.621511369943619E-002,-7.557577490806580E-001,6.564918756484985E-001,
1.292400000000000E+009,4.405147209763527E-002,-4.605758562684059E-002,-7.439042329788208E-001,6.573958396911621E-001,4.405147209763527E-002,-4.605758562684059E-002,-7.439042329788208E-001,6.573958396911621E-001,
1.300766666666667E+009,2.406128309667110E-002,-5.647277459502220E-002,-7.237077951431274E-001,6.824700832366943E-001,2.406128309667110E-002,-5.647277459502220E-002,-7.237077951431274E-001,6.824700832366943E-001,
1.309133333333334E+009,1.976112835109234E-003,-5.650228634476662E-002,-6.980456709861755E-001,6.957956552505493E-001,1.976112835109234E-003,-5.650228634476662E-002,-6.980456709861755E-001,6.957956552505493E-001,
1.317500000000000E+009,-1.474545709788799E-002,-4.578063637018204E-002,-6.899572014808655E-001,7.254922986030579E-001,-1.474545709788799E-002,-4.578063637018204E-002,-6.899572014808655E-001,7.254922986030579E-001,
1.325866666666667E+009,-2.330056764185429E-002,-2.860294841229916E-002,-6.731237769126892E-001,7.417989373207092E-001,-2.330056764185429E-002,-2.860294841229916E-002,-6.731237769126892E-001,7.417989373207092E-001,
1.334233333333334E+009,-1.872002519667149E-002,-8.346570655703545E-003,-6.567976474761963E-001,7.514594793319702E-001,-1.872002519667149E-002,-8.346570655703545E-003,-6.567976474761963E-001,7.514594793319702E-001,
1.342600000000000E+009,-5.454181693494320E-003,4.153280518949032E-003,-6.411643028259277E-001,7.703703641891480E-001,-5.454181693494320E-003,4.153280518949032E-003,-6.411643028259277E-001,7.703703641891480E-001,
1.350966666666667E+009,1.328779477626085E-002,5.431442521512508E-003,-6.149927377700806E-001,7.853000760078430E-001,1.328779477626085E-002,5.431442521512508E-003,-6.149927377700806E-001,7.853000760078430E-001,
1.359333333333334E+009,2.862112782895565E-002,-5.464434623718262E-003,-6.060176491737366E-001,7.883988618850708E-001,2.862112782895565E-002,-5.464434623718262E-003,-6.060176491737366E-001,7.883988618850708E-001,
1.367700000000000E+009,3.572701662778854E-002,-2.337096631526947E-002,-5.673136711120606E-001,8.079055547714233E-001,3.572701662778854E-002,-2.337096631526947E-002,-5.673136711120606E-001,8.079055547714233E-001,
1.376066666666667E+009,3.231350332498550E-002,-4.525906592607498E-002,-5.517400503158569E-001,8.174892067909241E-001,3.231350332498550E-002,-4.525906592607498E-002,-5.517400503158569E-001,8.174892067909241E-001,
1.384433333333334E+009,1.603215746581554E-002,-6.187919899821281E-002,-5.398414134979248E-001,8.477381467819214E-001,1.603215746581554E-002,-6.187919899821281E-002,-5.398414134979248E-001,8.477381467819214E-001,
1.392800000000000E+009,-5.597837269306183E-003,-6.640038639307022E-002,-5.189459323883057E-001,8.572584986686707E-001,-5.597837269306183E-003,-6.640038639307022E-002,-5.189459323883057E-001,8.572584986686707E-001,
1.401166666666667E+009,-2.864640206098557E-002,-6.123758479952812E-002,-4.924632310867310E-001,8.646212220191956E-001,-2.864640206098557E-002,-6.123758479952812E-002,-4.924632310867310E-001,8.646212220191956E-001,
1.409533333333334E+009,-4.472202807664871E-002,-4.316514357924461E-002,-4.663032889366150E-001,8.800184726715088E-001,-4.472202807664871E-002,-4.316514357924461E-002,-4.663032889366150E-001,8.800184726715088E-001,
1.417900000000000E+009,-4.918362945318222E-002,-1.939864642918110E-002,-4.495334327220917E-001,8.772736787796021E-001,-4.918362945318222E-002,-1.939864642918110E-002,-4.495334327220917E-001,8.772736787796021E-001,
1.426266666666667E+009,-4.151345044374466E-002,6.407513137673959E-005,-4.137497842311859E-001,9.070458412170410E-001,-4.151345044374466E-002,6.407513137673959E-005,-4.137497842311859E-001,9.070458412170410E-001,
1.434633333333334E+009,-2.350033447146416E-002,1.351864449679852E-002,-4.060739874839783E-001,9.031842350959778E-001,-2.350033447146416E-002,1.351864449679852E-002,-4.060739874839783E-001,9.031842350959778E-001,
1.443000000000000E+009,-3.561639925464988E-003,1.532683800905943E-002,-3.828263282775879E-001,9.140261411666870E-001,-3.561639925464988E-003,1.532683800905943E-002,-3.828263282775879E-001,9.140261411666870E-001,
1.451366666666667E+009,1.400320790708065E-002,3.771003801375628E-003,-3.570441305637360E-001,9.184341430664063E-001,1.400320790708065E-002,3.771003801375628E-003,-3.570441305637360E-001,9.184341430664063E-001,
1.459733333333334E+009,2.271135710179806E-002,-1.353684347122908E-002,-3.328585624694824E-001,9.487541913986206E-001,2.271135710179806E-002,-1.353684347122908E-002,-3.328585624694824E-001,9.487541913986206E-001,
