% Version 1.00
%
%freq[Hz],re:Trc1_S11,im:Trc1_S11,re:Trc2_S21,im:Trc2_S21,re:Trc3_S11,im:Trc3_S11,re:Trc4_S21,im:Trc4_S21,
6.900000000000000E+008,-4.373367130756378E-002,2.517005987465382E-002,-4.989803433418274E-001,-8.356643915176392E-001,-4.373367130756378E-002,2.517005987465382E-002,-4.989803433418274E-001,-8.356643915176392E-001,
6.983666666666666E+008,-3.659730777144432E-002,2.547843940556049E-002,-5.199723243713379E-001,-8.247368335723877E-001,-3.659730777144432E-002,2.547843940556049E-002,-5.199723243713379E-001,-8.247368335723877E-001,
7.067333333333334E+008,-3.104808367788792E-002,2.145322412252426E-002,-5.448345541954041E-001,-8.012662529945374E-001,-3.104808367788792E-002,2.145322412252426E-002,-5.448345541954041E-001,-8.012662529945374E-001,
7.151000000000000E+008,-3.082825988531113E-002,1.388013549149036E-002,-5.803759098052979E-001,-7.987789511680603E-001,-3.082825988531113E-002,1.388013549149036E-002,-5.803759098052979E-001,-7.987789511680603E-001,
7.234666666666666E+008,-3.306197002530098E-002,8.608906529843807E-003,-5.928317904472351E-001,-7.838782668113709E-001,-3.306197002530098E-002,8.608906529843807E-003,-5.928317904472351E-001,-7.838782668113709E-001,
7.318333333333334E+008,-4.062882810831070E-002,6.613955833017826E-003,-6.117677688598633E-001,-7.665932178497315E-001,-4.062882810831070E-002,6.613955833017826E-003,-6.117677688598633E-001,-7.665932178497315E-001,
7.402000000000000E+008,-4.664529487490654E-002,8.777266368269920E-003,-6.224183440208435E-001,-7.394372224807739E-001,-4.664529487490654E-002,8.777266368269920E-003,-6.224183440208435E-001,-7.394372224807739E-001,
7.485666666666666E+008,-5.207595601677895E-002,1.538595929741859E-002,-6.514682173728943E-001,-7.262520790100098E-001,-5.207595601677895E-002,1.538595929741859E-002,-6.514682173728943E-001,-7.262520790100098E-001,
7.569333333333334E+008,-5.581423267722130E-002,2.442862838506699E-002,-6.677480340003967E-001,-7.182515263557434E-001,-5.581423267722130E-002,2.442862838506699E-002,-6.677480340003967E-001,-7.182515263557434E-001,
7.653000000000000E+008,-5.045630782842636E-002,3.357756510376930E-002,-6.750205159187317E-001,-7.001004815101624E-001,-5.045630782842636E-002,3.357756510376930E-002,-6.750205159187317E-001,-7.001004815101624E-001,
7.736666666666666E+008,-4.457478225231171E-002,3.995206952095032E-002,-6.907818913459778E-001,-6.907221078872681E-001,-4.457478225231171E-002,3.995206952095032E-002,-6.907818913459778E-001,-6.907221078872681E-001,
7.820333333333334E+008,-3.600251302123070E-002,4.399893060326576E-002,-7.223988175392151E-001,-6.633781790733337E-001,-3.600251302123070E-002,4.399893060326576E-002,-7.223988175392151E-001,-6.633781790733337E-001,
7.904000000000000E+008,-2.715714089572430E-002,4.320709034800530E-002,-7.287046909332275E-001,-6.460922956466675E-001,-2.715714089572430E-002,4.320709034800530E-002,-7.287046909332275E-001,-6.460922956466675E-001,
7.987666666666666E+008,-2.319977432489395E-002,3.812246024608612E-002,-7.371580004692078E-001,-6.308313012123108E-001,-2.319977432489395E-002,3.812246024608612E-002,-7.371580004692078E-001,-6.308313012123108E-001,
8.071333333333334E+008,-2.106477133929730E-002,3.199322149157524E-002,-7.633809447288513E-001,-5.950333476066589E-001,-2.106477133929730E-002,3.199322149157524E-002,-7.633809447288513E-001,-5.950333476066589E-001,
8.155000000000000E+008,-2.444244548678398E-002,2.531400322914124E-002,-7.869499921798706E-001,-5.876379013061523E-001,-2.444244548678398E-002,2.531400322914124E-002,-7.869499921798706E-001,-5.876379013061523E-001,
8.238666666666666E+008,-3.160749375820160E-002,2.345508523285389E-002,-7.954573631286621E-001,-5.650392174720764E-001,-3.160749375820160E-002,2.345508523285389E-002,-7.954573631286621E-001,-5.650392174720764E-001,
8.322333333333334E+008,-3.690872713923454E-002,2.499257959425449E-002,-8.032954335212708E-001,-5.462145209312439E-001,-3.690872713923454E-002,2.499257959425449E-002,-8.032954335212708E-001,-5.462145209312439E-001,
8.406000000000000E+008,-4.144702106714249E-002,2.842419780790806E-002,-8.132712841033936E-001,-5.212272405624390E-001,-4.144702106714249E-002,2.842419780790806E-002,-8.132712841033936E-001,-5.212272405624390E-001,
8.489666666666668E+008,-4.326534643769264E-002,3.910221531987190E-002,-8.259072899818420E-001,-4.943822622299194E-001,-4.326534643769264E-002,3.910221531987190E-002,-8.259072899818420E-001,-4.943822622299194E-001,
8.573333333333334E+008,-4.120713099837303E-002,4.648726806044579E-002,-8.277214169502258E-001,-4.661979377269745E-001,-4.120713099837303E-002,4.648726806044579E-002,-8.277214169502258E-001,-4.661979377269745E-001,
8.657000000000000E+008,-3.621252998709679E-002,5.425623431801796E-002,-8.566338419914246E-001,-4.670480191707611E-001,-3.621252998709679E-002,5.425623431801796E-002,-8.566338419914246E-001,-4.670480191707611E-001,
8.740666666666668E+008,-2.722518332302570E-002,5.954027548432350E-002,-8.597094416618347E-001,-4.455790519714356E-001,-2.722518332302570E-002,5.954027548432350E-002,-8.597094416618347E-001,-4.455790519714356E-001,
8.824333333333334E+008,-1.945275068283081E-002,6.074999272823334E-002,-8.794530630111694E-001,-4.194677174091339E-001,-1.945275068283081E-002,6.074999272823334E-002,-8.794530630111694E-001,-4.194677174091339E-001,
8.908000000000000E+008,-1.196183636784554E-002,5.728590860962868E-002,-8.912373185157776E-001,-4.051515460014343E-001,-1.196183636784554E-002,5.728590860962868E-002,-8.912373185157776E-001,-4.051515460014343E-001,
8.991666666666668E+008,-6.359623279422522E-003,5.218921601772308E-002,-8.936977386474609E-001,-3.727551698684692E-001,-6.359623279422522E-003,5.218921601772308E-002,-8.936977386474609E-001,-3.727551698684692E-001,
9.075333333333334E+008,-6.929131224751473E-003,4.485319182276726E-002,-9.076206684112549E-001,-3.524006009101868E-001,-6.929131224751473E-003,4.485319182276726E-002,-9.076206684112549E-001,-3.524006009101868E-001,
9.159000000000000E+008,-9.284610860049725E-003,3.900956362485886E-002,-9.285975694656372E-001,-3.275550603866577E-001,-9.284610860049725E-003,3.900956362485886E-002,-9.285975694656372E-001,-3.275550603866577E-001,
9.242666666666668E+008,-1.649927906692028E-002,3.938924521207809E-002,-9.200518727302551E-001,-3.044396340847015E-001,-1.649927906692028E-002,3.938924521207809E-002,-9.200518727302551E-001,-3.044396340847015E-001,
9.326333333333334E+008,-2.157635241746903E-002,4.154131188988686E-002,-9.361625909805298E-001,-2.907095253467560E-001,-2.157635241746903E-002,4.154131188988686E-002,-9.361625909805298E-001,-2.907095253467560E-001,
9.410000000000000E+008,-2.541027404367924E-002,4.532714188098908E-002,-9.428879618644714E-001,-2.560469806194305E-001,-2.541027404367924E-002,4.532714188098908E-002,-9.428879618644714E-001,-2.560469806194305E-001,
9.493666666666668E+008,-2.717805095016956E-002,5.501633882522583E-002,-9.496186375617981E-001,-2.253338247537613E-001,-2.717805095016956E-002,5.501633882522583E-002,-9.496186375617981E-001,-2.253338247537613E-001,
9.577333333333334E+008,-2.338054962456226E-002,6.432991474866867E-002,-9.539173245429993E-001,-2.112284153699875E-001,-2.338054962456226E-002,6.432991474866867E-002,-9.539173245429993E-001,-2.112284153699875E-001,
9.661000000000000E+008,-1.462668552994728E-002,7.087008655071259E-002,-9.524849653244019E-001,-1.717103272676468E-001,-1.462668552994728E-002,7.087008655071259E-002,-9.524849653244019E-001,-1.717103272676468E-001,
9.744666666666668E+008,-3.754517063498497E-003,7.141713052988052E-002,-9.552824497222900E-001,-1.612411588430405E-001,-3.754517063498497E-003,7.141713052988052E-002,-9.552824497222900E-001,-1.612411588430405E-001,
9.828333333333334E+008,4.722439683973789E-003,7.239212840795517E-002,-9.664964079856873E-001,-1.403781771659851E-001,4.722439683973789E-003,7.239212840795517E-002,-9.664964079856873E-001,-1.403781771659851E-001,
9.912000000000000E+008,1.514263823628426E-002,6.639981269836426E-002,-9.657925367355347E-001,-1.191757842898369E-001,1.514263823628426E-002,6.639981269836426E-002,-9.657925367355347E-001,-1.191757842898369E-001,
9.995666666666668E+008,1.840716227889061E-002,5.870743840932846E-002,-9.758116006851196E-001,-8.423566818237305E-002,1.840716227889061E-002,5.870743840932846E-002,-9.758116006851196E-001,-8.423566818237305E-002,
1.007933333333333E+009,2.182468213140965E-002,4.991604387760162E-002,-9.909123182296753E-001,-6.453444063663483E-002,2.182468213140965E-002,4.991604387760162E-002,-9.909123182296753E-001,-6.453444063663483E-002,
1.016300000000000E+009,1.533078029751778E-002,4.409251362085342E-002,-9.792018532752991E-001,-4.104698821902275E-002,1.533078029751778E-002,4.409251362085342E-002,-9.792018532752991E-001,-4.104698821902275E-002,
1.024666666666667E+009,7.483330089598894E-003,4.025378078222275E-002,-9.755032062530518E-001,-1.572745665907860E-002,7.483330089598894E-003,4.025378078222275E-002,-9.755032062530518E-001,-1.572745665907860E-002,
1.033033333333333E+009,2.382568083703518E-003,4.521945118904114E-002,-9.820064902305603E-001,1.114943996071816E-002,2.382568083703518E-003,4.521945118904114E-002,-9.820064902305603E-001,1.114943996071816E-002,
1.041400000000000E+009,-3.834045259281993E-003,4.968959838151932E-002,-9.795165657997131E-001,3.436785563826561E-002,-3.834045259281993E-003,4.968959838151932E-002,-9.795165657997131E-001,3.436785563826561E-002,
1.049766666666667E+009,-1.112612313590944E-003,5.951485037803650E-002,-9.696567654609680E-001,6.822387874126434E-002,-1.112612313590944E-003,5.951485037803650E-002,-9.696567654609680E-001,6.822387874126434E-002,
1.058133333333333E+009,4.011887591332197E-003,6.865717470645905E-002,-9.679747223854065E-001,8.972035348415375E-002,4.011887591332197E-003,6.865717470645905E-002,-9.679747223854065E-001,8.972035348415375E-002,
1.066500000000000E+009,1.480602100491524E-002,7.255071401596069E-002,-9.831445217132568E-001,1.236838176846504E-001,1.480602100491524E-002,7.255071401596069E-002,-9.831445217132568E-001,1.236838176846504E-001,
1.074866666666667E+009,2.840020135045052E-002,7.115665078163147E-002,-9.766469001770020E-001,1.436048299074173E-001,2.840020135045052E-002,7.115665078163147E-002,-9.766469001770020E-001,1.436048299074173E-001,
1.083233333333334E+009,3.720066323876381E-002,6.349746882915497E-002,-9.625704884529114E-001,1.644766926765442E-001,3.720066323876381E-002,6.349746882915497E-002,-9.625704884529114E-001,1.644766926765442E-001,
1.091600000000000E+009,4.348433762788773E-002,5.331110209226608E-002,-9.444180727005005E-001,1.837576329708099E-001,4.348433762788773E-002,5.331110209226608E-002,-9.444180727005005E-001,1.837576329708099E-001,
1.099966666666667E+009,4.251516982913017E-002,4.035685956478119E-002,-9.394249916076660E-001,2.230182290077210E-001,4.251516982913017E-002,4.035685956478119E-002,-9.394249916076660E-001,2.230182290077210E-001,
1.108333333333334E+009,3.427203744649887E-002,3.279938548803330E-002,-9.419986009597778E-001,2.297864109277725E-001,3.427203744649887E-002,3.279938548803330E-002,-9.419986009597778E-001,2.297864109277725E-001,
1.116700000000000E+009,2.369843795895577E-002,2.973888255655766E-002,-9.314026236534119E-001,2.644017636775971E-001,2.369843795895577E-002,2.973888255655766E-002,-9.314026236534119E-001,2.644017636775971E-001,
1.125066666666667E+009,1.254695933312178E-002,3.458873555064201E-002,-9.334505796432495E-001,2.794014215469360E-001,1.254695933312178E-002,3.458873555064201E-002,-9.334505796432495E-001,2.794014215469360E-001,
1.133433333333334E+009,5.283976439386606E-003,4.397386685013771E-002,-9.287337660789490E-001,3.222447931766510E-001,5.283976439386606E-003,4.397386685013771E-002,-9.287337660789490E-001,3.222447931766510E-001,
1.141800000000000E+009,4.219600465148687E-003,5.698756501078606E-002,-9.040251970291138E-001,3.359105587005615E-001,4.219600465148687E-003,5.698756501078606E-002,-9.040251970291138E-001,3.359105587005615E-001,
1.150166666666667E+009,1.312795467674732E-002,7.127375155687332E-002,-8.985481858253479E-001,3.379670679569244E-001,1.312795467674732E-002,7.127375155687332E-002,-8.985481858253479E-001,3.379670679569244E-001,
1.158533333333334E+009,2.892401441931725E-002,7.745154201984406E-002,-8.901574015617371E-001,3.769304454326630E-001,2.892401441931725E-002,7.745154201984406E-002,-8.901574015617371E-001,3.769304454326630E-001,
1.166900000000000E+009,4.819032922387123E-002,7.742843776941299E-002,-8.735334277153015E-001,3.977109193801880E-001,4.819032922387123E-002,7.742843776941299E-002,-8.735334277153015E-001,3.977109193801880E-001,
1.175266666666667E+009,6.364713609218597E-002,6.633550673723221E-002,-8.671534061431885E-001,4.275434613227844E-001,6.364713609218597E-002,6.633550673723221E-002,-8.671534061431885E-001,4.275434613227844E-001,
1.183633333333334E+009,7.543534785509110E-002,5.248200520873070E-002,-8.647669553756714E-001,4.350543320178986E-001,7.543534785509110E-002,5.248200520873070E-002,-8.647669553756714E-001,4.350543320178986E-001,
1.192000000000000E+009,7.540351152420044E-002,3.404754027724266E-002,-8.549322485923767E-001,4.602682590484619E-001,7.540351152420044E-002,3.404754027724266E-002,-8.549322485923767E-001,4.602682590484619E-001,
1.200366666666667E+009,6.598524749279022E-002,1.817691326141357E-002,-8.407494425773621E-001,4.834194183349609E-001,6.598524749279022E-002,1.817691326141357E-002,-8.407494425773621E-001,4.834194183349609E-001,
1.208733333333334E+009,5.109385773539543E-002,1.010333746671677E-002,-8.335169553756714E-001,5.235459804534912E-001,5.109385773539543E-002,1.010333746671677E-002,-8.335169553756714E-001,5.235459804534912E-001,
1.217100000000000E+009,3.537577390670776E-002,1.217703707516193E-002,-8.320712447166443E-001,5.341225862503052E-001,3.537577390670776E-002,1.217703707516193E-002,-8.320712447166443E-001,5.341225862503052E-001,
1.225466666666667E+009,2.358585968613625E-002,2.298313751816750E-002,-7.973574399948120E-001,5.585290193557739E-001,2.358585968613625E-002,2.298313751816750E-002,-7.973574399948120E-001,5.585290193557739E-001,
1.233833333333334E+009,1.956326141953468E-002,3.937313705682755E-002,-7.915452122688294E-001,5.688536167144775E-001,1.956326141953468E-002,3.937313705682755E-002,-7.915452122688294E-001,5.688536167144775E-001,
1.242200000000000E+009,2.832022309303284E-002,5.305732041597366E-002,-7.651191353797913E-001,6.011633276939392E-001,2.832022309303284E-002,5.305732041597366E-002,-7.651191353797913E-001,6.011633276939392E-001,
1.250566666666667E+009,4.140629246830940E-002,6.235943734645844E-002,-7.462577819824219E-001,6.059391498565674E-001,4.140629246830940E-002,6.235943734645844E-002,-7.462577819824219E-001,6.059391498565674E-001,
1.258933333333334E+009,6.180165335536003E-002,6.191694363951683E-002,-7.404024004936218E-001,6.285426020622253E-001,6.180165335536003E-002,6.191694363951683E-002,-7.404024004936218E-001,6.285426020622253E-001,
1.267300000000000E+009,8.071513473987579E-002,5.113146081566811E-002,-7.228465676307678E-001,6.430575251579285E-001,8.071513473987579E-002,5.113146081566811E-002,-7.228465676307678E-001,6.430575251579285E-001,
1.275666666666667E+009,8.979731053113937E-002,3.269769623875618E-002,-7.079718112945557E-001,6.505041718482971E-001,8.979731053113937E-002,3.269769623875618E-002,-7.079718112945557E-001,6.505041718482971E-001,
1.284033333333334E+009,9.215249121189117E-002,1.215237379074097E-002,-6.928183436393738E-001,6.943707466125488E-001,9.215249121189117E-002,1.215237379074097E-002,-6.928183436393738E-001,6.943707466125488E-001,
1.292400000000000E+009,8.113432675600052E-002,-5.856981966644526E-003,-6.797267198562622E-001,6.974260210990906E-001,8.113432675600052E-002,-5.856981966644526E-003,-6.797267198562622E-001,6.974260210990906E-001,
1.300766666666667E+009,6.213274225592613E-002,-1.367706246674061E-002,-6.591549515724182E-001,7.203115224838257E-001,6.213274225592613E-002,-1.367706246674061E-002,-6.591549515724182E-001,7.203115224838257E-001,
1.309133333333334E+009,4.222558811306953E-002,-1.161197386682034E-002,-6.340905427932739E-001,7.361966371536255E-001,4.222558811306953E-002,-1.161197386682034E-002,-6.340905427932739E-001,7.361966371536255E-001,
1.317500000000000E+009,2.816856466233730E-002,5.525560700334609E-004,-6.204098463058472E-001,7.654976248741150E-001,2.816856466233730E-002,5.525560700334609E-004,-6.204098463058472E-001,7.654976248741150E-001,
1.325866666666667E+009,2.390589751303196E-002,1.764228381216526E-002,-6.004394292831421E-001,7.795295715332031E-001,2.390589751303196E-002,1.764228381216526E-002,-6.004394292831421E-001,7.795295715332031E-001,
1.334233333333334E+009,3.210099041461945E-002,3.463587164878845E-002,-5.821936130523682E-001,7.847910523414612E-001,3.210099041461945E-002,3.463587164878845E-002,-5.821936130523682E-001,7.847910523414612E-001,
1.342600000000000E+009,4.761429876089096E-002,4.284958168864250E-002,-5.637564659118652E-001,8.020441532135010E-001,4.761429876089096E-002,4.284958168864250E-002,-5.637564659118652E-001,8.020441532135010E-001,
1.350966666666667E+009,6.791389733552933E-002,3.932304307818413E-002,-5.402703881263733E-001,8.132976889610291E-001,6.791389733552933E-002,3.932304307818413E-002,-5.402703881263733E-001,8.132976889610291E-001,
1.359333333333334E+009,8.227670192718506E-002,2.575669437646866E-002,-5.248134732246399E-001,8.121485710144043E-001,8.227670192718506E-002,2.575669437646866E-002,-5.248134732246399E-001,8.121485710144043E-001,
1.367700000000000E+009,8.819832652807236E-002,5.772793665528297E-003,-4.918815195560455E-001,8.315019011497498E-001,8.819832652807236E-002,5.772793665528297E-003,-4.918815195560455E-001,8.315019011497498E-001,
1.376066666666667E+009,8.448294550180435E-002,-1.629587635397911E-002,-4.803292453289032E-001,8.405151367187500E-001,8.448294550180435E-002,-1.629587635397911E-002,-4.803292453289032E-001,8.405151367187500E-001,
1.384433333333334E+009,6.804021447896957E-002,-3.101058676838875E-002,-4.618802070617676E-001,8.727265000343323E-001,6.804021447896957E-002,-3.101058676838875E-002,-4.618802070617676E-001,8.727265000343323E-001,
1.392800000000000E+009,4.777511954307556E-002,-3.272268176078796E-002,-4.410626590251923E-001,8.813772797584534E-001,4.777511954307556E-002,-3.272268176078796E-002,-4.410626590251923E-001,8.813772797584534E-001,
1.401166666666667E+009,2.817474491894245E-002,-2.481000870466232E-002,-4.134503304958344E-001,8.866325020790100E-001,2.817474491894245E-002,-2.481000870466232E-002,-4.134503304958344E-001,8.866325020790100E-001,
1.409533333333334E+009,1.573498360812664E-002,-7.069420535117388E-003,-3.869688808917999E-001,9.006230235099793E-001,1.573498360812664E-002,-7.069420535117388E-003,-3.869688808917999E-001,9.006230235099793E-001,
1.417900000000000E+009,1.683294028043747E-002,1.568685472011566E-002,-3.656170666217804E-001,8.971753120422363E-001,1.683294028043747E-002,1.568685472011566E-002,-3.656170666217804E-001,8.971753120422363E-001,
1.426266666666667E+009,2.725627087056637E-002,3.228734433650971E-002,-3.302512764930725E-001,9.190779924392700E-001,2.725627087056637E-002,3.228734433650971E-002,-3.302512764930725E-001,9.190779924392700E-001,
1.434633333333334E+009,4.794332385063171E-002,4.021757096052170E-002,-3.180930018424988E-001,9.167686700820923E-001,4.794332385063171E-002,4.021757096052170E-002,-3.180930018424988E-001,9.167686700820923E-001,
1.443000000000000E+009,6.783755868673325E-002,3.615825250744820E-002,-2.940427660942078E-001,9.244778156280518E-001,6.783755868673325E-002,3.615825250744820E-002,-2.940427660942078E-001,9.244778156280518E-001,
1.451366666666667E+009,8.335300534963608E-002,1.998277194797993E-002,-2.685089409351349E-001,9.248725175857544E-001,8.335300534963608E-002,1.998277194797993E-002,-2.685089409351349E-001,9.248725175857544E-001,
1.459733333333334E+009,8.981540799140930E-002,-5.540305282920599E-004,-2.446668297052383E-001,9.486377239227295E-001,8.981540799140930E-002,-5.540305282920599E-004,-2.446668297052383E-001,9.486377239227295E-001,
