% Version 1.00
%
%freq[Hz],re:Trc1_S11,im:Trc1_S11,re:Trc2_S21,im:Trc2_S21,re:Trc3_S11,im:Trc3_S11,re:Trc4_S21,im:Trc4_S21,
6.900000000000000E+008,-4.963683709502220E-002,4.016862809658051E-002,-5.057410001754761E-001,-8.506963253021240E-001,-4.963683709502220E-002,4.016862809658051E-002,-5.057410001754761E-001,-8.506963253021240E-001,
6.983666666666666E+008,-4.149439930915833E-002,4.068320989608765E-002,-5.310833454132080E-001,-8.397377133369446E-001,-4.149439930915833E-002,4.068320989608765E-002,-5.310833454132080E-001,-8.397377133369446E-001,
7.067333333333334E+008,-3.554230555891991E-002,3.624759614467621E-002,-5.535162091255188E-001,-8.138992190361023E-001,-3.554230555891991E-002,3.624759614467621E-002,-5.535162091255188E-001,-8.138992190361023E-001,
7.151000000000000E+008,-3.504980728030205E-002,2.874395810067654E-002,-5.888444185256958E-001,-8.116939067840576E-001,-3.504980728030205E-002,2.874395810067654E-002,-5.888444185256958E-001,-8.116939067840576E-001,
7.234666666666666E+008,-3.708330541849136E-002,2.358881756663322E-002,-6.024299860000610E-001,-7.961709499359131E-001,-3.708330541849136E-002,2.358881756663322E-002,-6.024299860000610E-001,-7.961709499359131E-001,
7.318333333333334E+008,-4.446741566061974E-002,2.130435407161713E-002,-6.194602847099304E-001,-7.785391211509705E-001,-4.446741566061974E-002,2.130435407161713E-002,-6.194602847099304E-001,-7.785391211509705E-001,
7.402000000000000E+008,-5.073065683245659E-002,2.332180552184582E-002,-6.304168105125427E-001,-7.532805800437927E-001,-5.073065683245659E-002,2.332180552184582E-002,-6.304168105125427E-001,-7.532805800437927E-001,
7.485666666666666E+008,-5.617377161979675E-002,3.040705993771553E-002,-6.602076292037964E-001,-7.400798797607422E-001,-5.617377161979675E-002,3.040705993771553E-002,-6.602076292037964E-001,-7.400798797607422E-001,
7.569333333333334E+008,-5.997763946652412E-002,4.030458629131317E-002,-6.789798140525818E-001,-7.265625596046448E-001,-5.997763946652412E-002,4.030458629131317E-002,-6.789798140525818E-001,-7.265625596046448E-001,
7.653000000000000E+008,-5.443857237696648E-002,4.930532351136208E-002,-6.863486170768738E-001,-7.076211571693420E-001,-5.443857237696648E-002,4.930532351136208E-002,-6.863486170768738E-001,-7.076211571693420E-001,
7.736666666666666E+008,-4.792829230427742E-002,5.611638724803925E-002,-6.988815069198608E-001,-7.033769488334656E-001,-4.792829230427742E-002,5.611638724803925E-002,-6.988815069198608E-001,-7.033769488334656E-001,
7.820333333333334E+008,-3.900733962655067E-002,6.027328595519066E-002,-7.324335575103760E-001,-6.750488281250000E-001,-3.900733962655067E-002,6.027328595519066E-002,-7.324335575103760E-001,-6.750488281250000E-001,
7.904000000000000E+008,-2.879299409687519E-002,5.923652648925781E-002,-7.414225339889526E-001,-6.564356684684753E-001,-2.879299409687519E-002,5.923652648925781E-002,-7.414225339889526E-001,-6.564356684684753E-001,
7.987666666666666E+008,-2.427563816308975E-002,5.406290665268898E-002,-7.467154860496521E-001,-6.402935385704041E-001,-2.427563816308975E-002,5.406290665268898E-002,-7.467154860496521E-001,-6.402935385704041E-001,
8.071333333333334E+008,-2.227544598281384E-002,4.761114716529846E-002,-7.731356024742127E-001,-6.081560850143433E-001,-2.227544598281384E-002,4.761114716529846E-002,-7.731356024742127E-001,-6.081560850143433E-001,
8.155000000000000E+008,-2.518426068127155E-002,4.056401178240776E-002,-7.999338507652283E-001,-5.969262719154358E-001,-2.518426068127155E-002,4.056401178240776E-002,-7.999338507652283E-001,-5.969262719154358E-001,
8.238666666666666E+008,-3.194778785109520E-002,3.864964097738266E-002,-8.060590028762817E-001,-5.734109878540039E-001,-3.194778785109520E-002,3.864964097738266E-002,-8.060590028762817E-001,-5.734109878540039E-001,
8.322333333333334E+008,-3.759657219052315E-002,4.014665260910988E-002,-8.156357407569885E-001,-5.554586052894592E-001,-3.759657219052315E-002,4.014665260910988E-002,-8.156357407569885E-001,-5.554586052894592E-001,
8.406000000000000E+008,-4.237576201558113E-002,4.346122965216637E-002,-8.272880911827087E-001,-5.326796174049377E-001,-4.237576201558113E-002,4.346122965216637E-002,-8.272880911827087E-001,-5.326796174049377E-001,
8.489666666666668E+008,-4.396539926528931E-002,5.477264150977135E-002,-8.391098380088806E-001,-5.033005475997925E-001,-4.396539926528931E-002,5.477264150977135E-002,-8.391098380088806E-001,-5.033005475997925E-001,
8.573333333333334E+008,-4.174553230404854E-002,6.268312036991119E-002,-8.410038352012634E-001,-4.727675616741180E-001,-4.174553230404854E-002,6.268312036991119E-002,-8.410038352012634E-001,-4.727675616741180E-001,
8.657000000000000E+008,-3.624813631176949E-002,7.030212134122849E-002,-8.687462210655212E-001,-4.767181277275085E-001,-3.624813631176949E-002,7.030212134122849E-002,-8.687462210655212E-001,-4.767181277275085E-001,
8.740666666666668E+008,-2.688791975378990E-002,7.539335638284683E-002,-8.751204609870911E-001,-4.516524076461792E-001,-2.688791975378990E-002,7.539335638284683E-002,-8.751204609870911E-001,-4.516524076461792E-001,
8.824333333333334E+008,-1.844926550984383E-002,7.685104757547379E-002,-8.931057453155518E-001,-4.273919463157654E-001,-1.844926550984383E-002,7.685104757547379E-002,-8.931057453155518E-001,-4.273919463157654E-001,
8.908000000000000E+008,-1.014897413551807E-002,7.330465316772461E-002,-9.068433046340942E-001,-4.095879495143890E-001,-1.014897413551807E-002,7.330465316772461E-002,-9.068433046340942E-001,-4.095879495143890E-001,
8.991666666666668E+008,-4.530190024524927E-003,6.727839261293411E-002,-9.066658020019531E-001,-3.822537362575531E-001,-4.530190024524927E-003,6.727839261293411E-002,-9.066658020019531E-001,-3.822537362575531E-001,
9.075333333333334E+008,-4.086688626557589E-003,5.982035025954247E-002,-9.207150936126709E-001,-3.570560514926910E-001,-4.086688626557589E-003,5.982035025954247E-002,-9.207150936126709E-001,-3.570560514926910E-001,
9.159000000000000E+008,-7.029760628938675E-003,5.410851165652275E-002,-9.417929053306580E-001,-3.321382701396942E-001,-7.029760628938675E-003,5.410851165652275E-002,-9.417929053306580E-001,-3.321382701396942E-001,
9.242666666666668E+008,-1.377864275127649E-002,5.442128330469132E-002,-9.333266019821167E-001,-3.101758658885956E-001,-1.377864275127649E-002,5.442128330469132E-002,-9.333266019821167E-001,-3.101758658885956E-001,
9.326333333333334E+008,-1.879800111055374E-002,5.682776123285294E-002,-9.494437575340271E-001,-2.955397665500641E-001,-1.879800111055374E-002,5.682776123285294E-002,-9.494437575340271E-001,-2.955397665500641E-001,
9.410000000000000E+008,-2.274069376289845E-002,6.126699596643448E-002,-9.593787193298340E-001,-2.595993578433991E-001,-2.274069376289845E-002,6.126699596643448E-002,-9.593787193298340E-001,-2.595993578433991E-001,
9.493666666666668E+008,-2.395469322800636E-002,7.053914666175842E-002,-9.636039137840271E-001,-2.288412153720856E-001,-2.395469322800636E-002,7.053914666175842E-002,-9.636039137840271E-001,-2.288412153720856E-001,
9.577333333333334E+008,-2.002499438822269E-002,8.033396303653717E-002,-9.695210456848145E-001,-2.151228338479996E-001,-2.002499438822269E-002,8.033396303653717E-002,-9.695210456848145E-001,-2.151228338479996E-001,
9.661000000000000E+008,-1.098541915416718E-002,8.681994676589966E-002,-9.700649380683899E-001,-1.729536205530167E-001,-1.098541915416718E-002,8.681994676589966E-002,-9.700649380683899E-001,-1.729536205530167E-001,
9.744666666666668E+008,7.930392166599631E-005,8.674427866935730E-002,-9.678496122360230E-001,-1.627141088247299E-001,7.930392166599631E-005,8.674427866935730E-002,-9.678496122360230E-001,-1.627141088247299E-001,
9.828333333333334E+008,9.534119628369808E-003,8.761420845985413E-002,-9.835717678070068E-001,-1.428804397583008E-001,9.534119628369808E-003,8.761420845985413E-002,-9.835717678070068E-001,-1.428804397583008E-001,
9.912000000000000E+008,2.017845772206783E-002,8.096589148044586E-002,-9.807408452033997E-001,-1.208536028862000E-001,2.017845772206783E-002,8.096589148044586E-002,-9.807408452033997E-001,-1.208536028862000E-001,
9.995666666666668E+008,2.392469346523285E-002,7.311642915010452E-002,-9.926009178161621E-001,-8.385806530714035E-002,2.392469346523285E-002,7.311642915010452E-002,-9.926009178161621E-001,-8.385806530714035E-002,
1.007933333333333E+009,2.751003950834274E-002,6.359761953353882E-002,-1.006090998649597E+000,-6.605266034603119E-002,2.751003950834274E-002,6.359761953353882E-002,-1.006090998649597E+000,-6.605266034603119E-002,
1.016300000000000E+009,2.143755927681923E-002,5.779116228222847E-002,-9.926424622535706E-001,-3.988442569971085E-002,2.143755927681923E-002,5.779116228222847E-002,-9.926424622535706E-001,-3.988442569971085E-002,
1.024666666666667E+009,1.373621076345444E-002,5.426087230443955E-002,-9.882651567459106E-001,-1.352806389331818E-002,1.373621076345444E-002,5.426087230443955E-002,-9.882651567459106E-001,-1.352806389331818E-002,
1.033033333333333E+009,8.909022435545921E-003,5.918724089860916E-002,-9.947554469108582E-001,1.300621684640646E-002,8.909022435545921E-003,5.918724089860916E-002,-9.947554469108582E-001,1.300621684640646E-002,
1.041400000000000E+009,2.488557714968920E-003,6.429828703403473E-002,-9.943807721138001E-001,3.420277312397957E-002,2.488557714968920E-003,6.429828703403473E-002,-9.943807721138001E-001,3.420277312397957E-002,
1.049766666666667E+009,6.032136734575033E-003,7.352001219987869E-002,-9.794725775718689E-001,7.025403529405594E-002,6.032136734575033E-003,7.352001219987869E-002,-9.794725775718689E-001,7.025403529405594E-002,
1.058133333333333E+009,1.066848542541266E-002,8.239682018756867E-002,-9.808700084686279E-001,9.212247282266617E-002,1.066848542541266E-002,8.239682018756867E-002,-9.808700084686279E-001,9.212247282266617E-002,
1.066500000000000E+009,2.215868793427944E-002,8.604981005191803E-002,-9.953644275665283E-001,1.266234368085861E-001,2.215868793427944E-002,8.604981005191803E-002,-9.953644275665283E-001,1.266234368085861E-001,
1.074866666666667E+009,3.592321276664734E-002,8.416483551263809E-002,-9.892804026603699E-001,1.468259096145630E-001,3.592321276664734E-002,8.416483551263809E-002,-9.892804026603699E-001,1.468259096145630E-001,
1.083233333333334E+009,4.454363510012627E-002,7.567252218723297E-002,-9.721483588218689E-001,1.671719402074814E-001,4.454363510012627E-002,7.567252218723297E-002,-9.721483588218689E-001,1.671719402074814E-001,
1.091600000000000E+009,5.102009698748589E-002,6.480230391025543E-002,-9.546232223510742E-001,1.865547001361847E-001,5.102009698748589E-002,6.480230391025543E-002,-9.546232223510742E-001,1.865547001361847E-001,
1.099966666666667E+009,5.000405013561249E-002,5.137846246361733E-002,-9.498087167739868E-001,2.247620373964310E-001,5.000405013561249E-002,5.137846246361733E-002,-9.498087167739868E-001,2.247620373964310E-001,
1.108333333333334E+009,4.193409904837608E-002,4.370915889739990E-002,-9.499057531356812E-001,2.332004010677338E-001,4.193409904837608E-002,4.370915889739990E-002,-9.499057531356812E-001,2.332004010677338E-001,
1.116700000000000E+009,3.170425444841385E-002,4.089692607522011E-002,-9.422744512557983E-001,2.668297588825226E-001,3.170425444841385E-002,4.089692607522011E-002,-9.422744512557983E-001,2.668297588825226E-001,
1.125066666666667E+009,2.095038257539272E-002,4.594310373067856E-002,-9.427587389945984E-001,2.835416197776794E-001,2.095038257539272E-002,4.594310373067856E-002,-9.427587389945984E-001,2.835416197776794E-001,
1.133433333333334E+009,1.368500571697950E-002,5.598589405417442E-002,-9.395498633384705E-001,3.285298645496368E-001,1.368500571697950E-002,5.598589405417442E-002,-9.395498633384705E-001,3.285298645496368E-001,
1.141800000000000E+009,1.301340386271477E-002,6.946078687906265E-002,-9.162120819091797E-001,3.428231775760651E-001,1.301340386271477E-002,6.946078687906265E-002,-9.162120819091797E-001,3.428231775760651E-001,
1.150166666666667E+009,2.234099060297012E-002,8.339163661003113E-002,-9.074714183807373E-001,3.437295854091644E-001,2.234099060297012E-002,8.339163661003113E-002,-9.074714183807373E-001,3.437295854091644E-001,
1.158533333333334E+009,3.861949965357781E-002,8.989156037569046E-002,-8.994971513748169E-001,3.834731876850128E-001,3.861949965357781E-002,8.989156037569046E-002,-8.994971513748169E-001,3.834731876850128E-001,
1.166900000000000E+009,5.791043490171433E-002,8.906912058591843E-002,-8.829430937767029E-001,4.035483598709106E-001,5.791043490171433E-002,8.906912058591843E-002,-8.829430937767029E-001,4.035483598709106E-001,
1.175266666666667E+009,7.358867675065994E-002,7.754211127758026E-002,-8.770013451576233E-001,4.323820173740387E-001,7.358867675065994E-002,7.754211127758026E-002,-8.770013451576233E-001,4.323820173740387E-001,
1.183633333333334E+009,8.534435927867889E-002,6.219868734478951E-002,-8.752269744873047E-001,4.445528686046600E-001,8.534435927867889E-002,6.219868734478951E-002,-8.752269744873047E-001,4.445528686046600E-001,
1.192000000000000E+009,8.516380190849304E-002,4.325999692082405E-002,-8.628298640251160E-001,4.668353796005249E-001,8.516380190849304E-002,4.325999692082405E-002,-8.628298640251160E-001,4.668353796005249E-001,
1.200366666666667E+009,7.557353377342224E-002,2.688487432897091E-002,-8.498106002807617E-001,4.883113205432892E-001,7.557353377342224E-002,2.688487432897091E-002,-8.498106002807617E-001,4.883113205432892E-001,
1.208733333333334E+009,6.087502837181091E-002,1.847920380532742E-002,-8.428817987442017E-001,5.302753448486328E-001,6.087502837181091E-002,1.847920380532742E-002,-8.428817987442017E-001,5.302753448486328E-001,
1.217100000000000E+009,4.540089890360832E-002,2.007439173758030E-002,-8.385112285614014E-001,5.405017733573914E-001,4.540089890360832E-002,2.007439173758030E-002,-8.385112285614014E-001,5.405017733573914E-001,
1.225466666666667E+009,3.370106220245361E-002,3.140453994274139E-002,-8.058366179466248E-001,5.646842718124390E-001,3.370106220245361E-002,3.140453994274139E-002,-8.058366179466248E-001,5.646842718124390E-001,
1.233833333333334E+009,2.984128333628178E-002,4.806218668818474E-002,-8.003761172294617E-001,5.760856270790100E-001,2.984128333628178E-002,4.806218668818474E-002,-8.003761172294617E-001,5.760856270790100E-001,
1.242200000000000E+009,3.871580213308334E-002,6.211194396018982E-002,-7.746410965919495E-001,6.092098355293274E-001,3.871580213308334E-002,6.211194396018982E-002,-7.746410965919495E-001,6.092098355293274E-001,
1.250566666666667E+009,5.210926383733749E-002,7.161983102560043E-002,-7.526900172233582E-001,6.143257021903992E-001,5.210926383733749E-002,7.161983102560043E-002,-7.526900172233582E-001,6.143257021903992E-001,
1.258933333333334E+009,7.228535413742065E-002,7.104296237230301E-002,-7.470563650131226E-001,6.362600326538086E-001,7.228535413742065E-002,7.104296237230301E-002,-7.470563650131226E-001,6.362600326538086E-001,
1.267300000000000E+009,9.146724641323090E-002,5.959450453519821E-002,-7.279834151268005E-001,6.501225233078003E-001,9.146724641323090E-002,5.959450453519821E-002,-7.279834151268005E-001,6.501225233078003E-001,
1.275666666666667E+009,1.001115068793297E-001,4.112777113914490E-002,-7.155479788780212E-001,6.581128239631653E-001,1.001115068793297E-001,4.112777113914490E-002,-7.155479788780212E-001,6.581128239631653E-001,
1.284033333333334E+009,1.018721014261246E-001,1.968270912766457E-002,-6.991661190986633E-001,7.001863718032837E-001,1.018721014261246E-001,1.968270912766457E-002,-6.991661190986633E-001,7.001863718032837E-001,
1.292400000000000E+009,9.157694131135941E-002,1.088434015400708E-003,-6.874246001243591E-001,7.036355733871460E-001,9.157694131135941E-002,1.088434015400708E-003,-6.874246001243591E-001,7.036355733871460E-001,
1.300766666666667E+009,7.241402566432953E-002,-7.234223652631044E-003,-6.647596359252930E-001,7.277417182922363E-001,7.241402566432953E-002,-7.234223652631044E-003,-6.647596359252930E-001,7.277417182922363E-001,
1.309133333333334E+009,5.272015556693077E-002,-5.607985891401768E-003,-6.398549079895020E-001,7.418537735939026E-001,5.272015556693077E-002,-5.607985891401768E-003,-6.398549079895020E-001,7.418537735939026E-001,
1.317500000000000E+009,3.888101130723953E-002,6.694723386317492E-003,-6.266968250274658E-001,7.725044488906860E-001,3.888101130723953E-002,6.694723386317492E-003,-6.266968250274658E-001,7.725044488906860E-001,
1.325866666666667E+009,3.507781401276588E-002,2.374733984470367E-002,-6.065003871917725E-001,7.872849106788635E-001,3.507781401276588E-002,2.374733984470367E-002,-6.065003871917725E-001,7.872849106788635E-001,
1.334233333333334E+009,4.393954575061798E-002,4.108219221234322E-002,-5.876940488815308E-001,7.929905652999878E-001,4.393954575061798E-002,4.108219221234322E-002,-5.876940488815308E-001,7.929905652999878E-001,
1.342600000000000E+009,5.979786813259125E-002,4.952061548829079E-002,-5.698421001434326E-001,8.101127147674561E-001,5.979786813259125E-002,4.952061548829079E-002,-5.698421001434326E-001,8.101127147674561E-001,
1.350966666666667E+009,7.988346368074417E-002,4.592230543494225E-002,-5.432426929473877E-001,8.218698501586914E-001,7.988346368074417E-002,4.592230543494225E-002,-5.432426929473877E-001,8.218698501586914E-001,
1.359333333333334E+009,9.434621036052704E-002,3.178102150559425E-002,-5.304083824157715E-001,8.209335803985596E-001,9.434621036052704E-002,3.178102150559425E-002,-5.304083824157715E-001,8.209335803985596E-001,
1.367700000000000E+009,9.958723932504654E-002,1.159786060452461E-002,-4.968355596065521E-001,8.392010331153870E-001,9.958723932504654E-002,1.159786060452461E-002,-4.968355596065521E-001,8.392010331153870E-001,
1.376066666666667E+009,9.533982723951340E-002,-1.095235813409090E-002,-4.816452860832214E-001,8.485609292984009E-001,9.533982723951340E-002,-1.095235813409090E-002,-4.816452860832214E-001,8.485609292984009E-001,
1.384433333333334E+009,7.807564735412598E-002,-2.622607164084911E-002,-4.665851891040802E-001,8.790209889411926E-001,7.807564735412598E-002,-2.622607164084911E-002,-4.665851891040802E-001,8.790209889411926E-001,
1.392800000000000E+009,5.765431001782417E-002,-2.857618406414986E-002,-4.451372921466827E-001,8.874969482421875E-001,5.765431001782417E-002,-2.857618406414986E-002,-4.451372921466827E-001,8.874969482421875E-001,
1.401166666666667E+009,3.781834244728088E-002,-2.109328657388687E-002,-4.181946218013763E-001,8.944181799888611E-001,3.781834244728088E-002,-2.109328657388687E-002,-4.181946218013763E-001,8.944181799888611E-001,
1.409533333333334E+009,2.515012584626675E-002,-3.904684213921428E-003,-3.884056806564331E-001,9.090290665626526E-001,2.515012584626675E-002,-3.904684213921428E-003,-3.884056806564331E-001,9.090290665626526E-001,
1.417900000000000E+009,2.691846340894699E-002,1.919000223278999E-002,-3.688611090183258E-001,9.047157764434815E-001,2.691846340894699E-002,1.919000223278999E-002,-3.688611090183258E-001,9.047157764434815E-001,
1.426266666666667E+009,3.837467357516289E-002,3.579577058553696E-002,-3.312845528125763E-001,9.305834174156189E-001,3.837467357516289E-002,3.579577058553696E-002,-3.312845528125763E-001,9.305834174156189E-001,
1.434633333333334E+009,5.920936167240143E-002,4.360124096274376E-002,-3.217020630836487E-001,9.245789051055908E-001,5.920936167240143E-002,4.360124096274376E-002,-3.217020630836487E-001,9.245789051055908E-001,
1.443000000000000E+009,7.965398579835892E-002,4.023252800107002E-002,-2.972484230995178E-001,9.317986965179443E-001,7.965398579835892E-002,4.023252800107002E-002,-2.972484230995178E-001,9.317986965179443E-001,
1.451366666666667E+009,9.520829468965530E-002,2.420200034976006E-002,-2.715725004673004E-001,9.316698908805847E-001,9.520829468965530E-002,2.420200034976006E-002,-2.715725004673004E-001,9.316698908805847E-001,
1.459733333333334E+009,1.011370271444321E-001,3.601192729547620E-003,-2.457033544778824E-001,9.585679173469544E-001,1.011370271444321E-001,3.601192729547620E-003,-2.457033544778824E-001,9.585679173469544E-001,
