% Version 1.00
%
%freq[Hz],re:Trc1_S11,im:Trc1_S11,re:Trc2_S21,im:Trc2_S21,re:Trc3_S11,im:Trc3_S11,re:Trc4_S21,im:Trc4_S21,
6.900000000000000E+008,-4.169661551713944E-002,3.078631870448589E-002,-4.984328746795654E-001,-8.435359597206116E-001,-4.169661551713944E-002,3.078631870448589E-002,-4.984328746795654E-001,-8.435359597206116E-001,
6.983666666666666E+008,-3.402006998658180E-002,3.128847852349281E-002,-5.234206914901733E-001,-8.330152034759522E-001,-3.402006998658180E-002,3.128847852349281E-002,-5.234206914901733E-001,-8.330152034759522E-001,
7.067333333333334E+008,-2.827862277626991E-002,2.681143768131733E-002,-5.461174249649048E-001,-8.074373006820679E-001,-2.827862277626991E-002,2.681143768131733E-002,-5.461174249649048E-001,-8.074373006820679E-001,
7.151000000000000E+008,-2.800635993480682E-002,1.920364610850811E-002,-5.810391306877136E-001,-8.052425384521484E-001,-2.800635993480682E-002,1.920364610850811E-002,-5.810391306877136E-001,-8.052425384521484E-001,
7.234666666666666E+008,-2.981122583150864E-002,1.397723145782948E-002,-5.945674777030945E-001,-7.901073694229126E-001,-2.981122583150864E-002,1.397723145782948E-002,-5.945674777030945E-001,-7.901073694229126E-001,
7.318333333333334E+008,-3.701690211892128E-002,1.163155212998390E-002,-6.116674542427063E-001,-7.728289961814880E-001,-3.701690211892128E-002,1.163155212998390E-002,-6.116674542427063E-001,-7.728289961814880E-001,
7.402000000000000E+008,-4.304805770516396E-002,1.339909713715315E-002,-6.221219897270203E-001,-7.480998039245606E-001,-4.304805770516396E-002,1.339909713715315E-002,-6.221219897270203E-001,-7.480998039245606E-001,
7.485666666666666E+008,-4.821780696511269E-002,2.009501680731773E-002,-6.516162753105164E-001,-7.349721193313599E-001,-4.821780696511269E-002,2.009501680731773E-002,-6.516162753105164E-001,-7.349721193313599E-001,
7.569333333333334E+008,-5.208700522780418E-002,2.960163913667202E-002,-6.698763966560364E-001,-7.216914892196655E-001,-5.208700522780418E-002,2.960163913667202E-002,-6.698763966560364E-001,-7.216914892196655E-001,
7.653000000000000E+008,-4.687618464231491E-002,3.824594989418984E-002,-6.769860386848450E-001,-7.026899456977844E-001,-4.687618464231491E-002,3.824594989418984E-002,-6.769860386848450E-001,-7.026899456977844E-001,
7.736666666666666E+008,-4.087585210800171E-002,4.475193843245506E-002,-6.898924112319946E-001,-6.986095309257507E-001,-4.087585210800171E-002,4.475193843245506E-002,-6.898924112319946E-001,-6.986095309257507E-001,
7.820333333333334E+008,-3.260846808552742E-002,4.873007908463478E-002,-7.228121757507324E-001,-6.708688139915466E-001,-3.260846808552742E-002,4.873007908463478E-002,-7.228121757507324E-001,-6.708688139915466E-001,
7.904000000000000E+008,-2.306674607098103E-002,4.764489457011223E-002,-7.318624258041382E-001,-6.523001194000244E-001,-2.306674607098103E-002,4.764489457011223E-002,-7.318624258041382E-001,-6.523001194000244E-001,
7.987666666666666E+008,-1.920656673610210E-002,4.237346351146698E-002,-7.372544407844544E-001,-6.369699239730835E-001,-1.920656673610210E-002,4.237346351146698E-002,-7.372544407844544E-001,-6.369699239730835E-001,
8.071333333333334E+008,-1.722768135368824E-002,3.592828661203384E-002,-7.637251615524292E-001,-6.051150560379028E-001,-1.722768135368824E-002,3.592828661203384E-002,-7.637251615524292E-001,-6.051150560379028E-001,
8.155000000000000E+008,-2.026269584894180E-002,2.894451655447483E-002,-7.900484204292297E-001,-5.939019322395325E-001,-2.026269584894180E-002,2.894451655447483E-002,-7.900484204292297E-001,-5.939019322395325E-001,
8.238666666666666E+008,-2.681481093168259E-002,2.683817408978939E-002,-7.963253259658814E-001,-5.707087516784668E-001,-2.681481093168259E-002,2.683817408978939E-002,-7.963253259658814E-001,-5.707087516784668E-001,
8.322333333333334E+008,-3.230007365345955E-002,2.805633656680584E-002,-8.059457540512085E-001,-5.527564287185669E-001,-3.230007365345955E-002,2.805633656680584E-002,-8.059457540512085E-001,-5.527564287185669E-001,
8.406000000000000E+008,-3.682745620608330E-002,3.111005946993828E-002,-8.172598481178284E-001,-5.304752588272095E-001,-3.682745620608330E-002,3.111005946993828E-002,-8.172598481178284E-001,-5.304752588272095E-001,
8.489666666666668E+008,-3.838545083999634E-002,4.195206239819527E-002,-8.292583227157593E-001,-5.014072060585022E-001,-3.838545083999634E-002,4.195206239819527E-002,-8.292583227157593E-001,-5.014072060585022E-001,
8.573333333333334E+008,-3.638976067304611E-002,4.956309869885445E-002,-8.314279317855835E-001,-4.715049266815186E-001,-3.638976067304611E-002,4.956309869885445E-002,-8.314279317855835E-001,-4.715049266815186E-001,
8.657000000000000E+008,-3.136469423770905E-002,5.718567594885826E-002,-8.590394854545593E-001,-4.754688441753388E-001,-3.136469423770905E-002,5.718567594885826E-002,-8.590394854545593E-001,-4.754688441753388E-001,
8.740666666666668E+008,-2.266046218574047E-002,6.219411268830299E-002,-8.644955754280090E-001,-4.508435428142548E-001,-2.266046218574047E-002,6.219411268830299E-002,-8.644955754280090E-001,-4.508435428142548E-001,
8.824333333333334E+008,-1.479561720043421E-002,6.365828216075897E-002,-8.828590512275696E-001,-4.268551170825958E-001,-1.479561720043421E-002,6.365828216075897E-002,-8.828590512275696E-001,-4.268551170825958E-001,
8.908000000000000E+008,-7.080263923853636E-003,6.025420129299164E-002,-8.964955210685730E-001,-4.093148708343506E-001,-7.080263923853636E-003,6.025420129299164E-002,-8.964955210685730E-001,-4.093148708343506E-001,
8.991666666666668E+008,-1.973571721464396E-003,5.438022315502167E-002,-8.962476849555969E-001,-3.823974430561066E-001,-1.973571721464396E-003,5.438022315502167E-002,-8.962476849555969E-001,-3.823974430561066E-001,
9.075333333333334E+008,-1.881868927739561E-003,4.676126316189766E-002,-9.101964235305786E-001,-3.574022948741913E-001,-1.881868927739561E-003,4.676126316189766E-002,-9.101964235305786E-001,-3.574022948741913E-001,
9.159000000000000E+008,-4.601269029080868E-003,4.093388095498085E-002,-9.314445257186890E-001,-3.325254321098328E-001,-4.601269029080868E-003,4.093388095498085E-002,-9.314445257186890E-001,-3.325254321098328E-001,
9.242666666666668E+008,-1.127896457910538E-002,4.089006781578064E-002,-9.227727055549622E-001,-3.109099566936493E-001,-1.127896457910538E-002,4.089006781578064E-002,-9.227727055549622E-001,-3.109099566936493E-001,
9.326333333333334E+008,-1.620300114154816E-002,4.283164441585541E-002,-9.384642839431763E-001,-2.967893481254578E-001,-1.620300114154816E-002,4.283164441585541E-002,-9.384642839431763E-001,-2.967893481254578E-001,
9.410000000000000E+008,-2.012069895863533E-002,4.684142395853996E-002,-9.483139514923096E-001,-2.608279287815094E-001,-2.012069895863533E-002,4.684142395853996E-002,-9.483139514923096E-001,-2.608279287815094E-001,
9.493666666666668E+008,-2.163987234234810E-002,5.584667995572090E-002,-9.530588984489441E-001,-2.308837622404099E-001,-2.163987234234810E-002,5.584667995572090E-002,-9.530588984489441E-001,-2.308837622404099E-001,
9.577333333333334E+008,-1.807194389402866E-002,6.535580009222031E-002,-9.589608907699585E-001,-2.171494066715241E-001,-1.807194389402866E-002,6.535580009222031E-002,-9.589608907699585E-001,-2.171494066715241E-001,
9.661000000000000E+008,-9.418315254151821E-003,7.193033397197723E-002,-9.597502350807190E-001,-1.761901676654816E-001,-9.418315254151821E-003,7.193033397197723E-002,-9.597502350807190E-001,-1.761901676654816E-001,
9.744666666666668E+008,9.819363476708531E-004,7.229252159595490E-002,-9.576033353805542E-001,-1.657065004110336E-001,9.819363476708531E-004,7.229252159595490E-002,-9.576033353805542E-001,-1.657065004110336E-001,
9.828333333333334E+008,9.826861321926117E-003,7.330805808305740E-002,-9.731145501136780E-001,-1.461301892995834E-001,9.826861321926117E-003,7.330805808305740E-002,-9.731145501136780E-001,-1.461301892995834E-001,
9.912000000000000E+008,1.996839232742786E-002,6.698036193847656E-002,-9.705190658569336E-001,-1.245332360267639E-001,1.996839232742786E-002,6.698036193847656E-002,-9.705190658569336E-001,-1.245332360267639E-001,
9.995666666666668E+008,2.333560399711132E-002,5.917910113930702E-002,-9.828011989593506E-001,-8.793218433856964E-002,2.333560399711132E-002,5.917910113930702E-002,-9.828011989593506E-001,-8.793218433856964E-002,
1.007933333333333E+009,2.653112262487412E-002,4.965693876147270E-002,-9.963846802711487E-001,-7.034216076135635E-002,2.653112262487412E-002,4.965693876147270E-002,-9.963846802711487E-001,-7.034216076135635E-002,
1.016300000000000E+009,2.014969661831856E-002,4.353022575378418E-002,-9.829252958297730E-001,-4.452136531472206E-002,2.014969661831856E-002,4.353022575378418E-002,-9.829252958297730E-001,-4.452136531472206E-002,
1.024666666666667E+009,1.241873484104872E-002,3.956677019596100E-002,-9.788151383399963E-001,-1.869652047753334E-002,1.241873484104872E-002,3.956677019596100E-002,-9.788151383399963E-001,-1.869652047753334E-002,
1.033033333333333E+009,7.377698551863432E-003,4.407401755452156E-002,-9.856474399566650E-001,7.246012333780527E-003,7.377698551863432E-003,4.407401755452156E-002,-9.856474399566650E-001,7.246012333780527E-003,
1.041400000000000E+009,8.778070332482457E-004,4.894391074776650E-002,-9.851932525634766E-001,2.851591072976589E-002,8.778070332482457E-004,4.894391074776650E-002,-9.851932525634766E-001,2.851591072976589E-002,
1.049766666666667E+009,3.975082188844681E-003,5.840767547488213E-002,-9.707159399986267E-001,6.437244266271591E-002,3.975082188844681E-003,5.840767547488213E-002,-9.707159399986267E-001,6.437244266271591E-002,
1.058133333333333E+009,8.282801136374474E-003,6.734775006771088E-002,-9.721586108207703E-001,8.594357967376709E-002,8.282801136374474E-003,6.734775006771088E-002,-9.721586108207703E-001,8.594357967376709E-002,
1.066500000000000E+009,1.943350769579411E-002,7.160355895757675E-002,-9.864995479583740E-001,1.195770502090454E-001,1.943350769579411E-002,7.160355895757675E-002,-9.864995479583740E-001,1.195770502090454E-001,
1.074866666666667E+009,3.271058574318886E-002,7.042673230171204E-002,-9.806681871414185E-001,1.397278606891632E-001,3.271058574318886E-002,7.042673230171204E-002,-9.806681871414185E-001,1.397278606891632E-001,
1.083233333333334E+009,4.117002338171005E-002,6.250239908695221E-002,-9.639305472373962E-001,1.602707356214523E-001,4.117002338171005E-002,6.250239908695221E-002,-9.639305472373962E-001,1.602707356214523E-001,
1.091600000000000E+009,4.738239943981171E-002,5.211012437939644E-002,-9.468327164649963E-001,1.796344369649887E-001,4.738239943981171E-002,5.211012437939644E-002,-9.468327164649963E-001,1.796344369649887E-001,
1.099966666666667E+009,4.629642516374588E-002,3.875488787889481E-002,-9.419461488723755E-001,2.176498621702194E-001,4.629642516374588E-002,3.875488787889481E-002,-9.419461488723755E-001,2.176498621702194E-001,
1.108333333333334E+009,3.799708560109139E-002,3.082173876464367E-002,-9.420405626296997E-001,2.256613820791245E-001,3.799708560109139E-002,3.082173876464367E-002,-9.420405626296997E-001,2.256613820791245E-001,
1.116700000000000E+009,2.751407027244568E-002,2.748145721852779E-002,-9.347128868103027E-001,2.591261863708496E-001,2.751407027244568E-002,2.748145721852779E-002,-9.347128868103027E-001,2.591261863708496E-001,
1.125066666666667E+009,1.646141335368156E-002,3.186876326799393E-002,-9.352056384086609E-001,2.758511602878571E-001,1.646141335368156E-002,3.186876326799393E-002,-9.352056384086609E-001,2.758511602878571E-001,
1.133433333333334E+009,8.808129467070103E-003,4.144278913736343E-002,-9.324877262115479E-001,3.205827772617340E-001,8.808129467070103E-003,4.144278913736343E-002,-9.324877262115479E-001,3.205827772617340E-001,
1.141800000000000E+009,7.702414412051439E-003,5.444680526852608E-002,-9.096186161041260E-001,3.344093263149262E-001,7.702414412051439E-003,5.444680526852608E-002,-9.096186161041260E-001,3.344093263149262E-001,
1.150166666666667E+009,1.676050387322903E-002,6.842275708913803E-002,-9.005301594734192E-001,3.354063928127289E-001,1.676050387322903E-002,6.842275708913803E-002,-9.005301594734192E-001,3.354063928127289E-001,
1.158533333333334E+009,3.247374296188355E-002,7.517682760953903E-002,-8.929733037948608E-001,3.750557899475098E-001,3.247374296188355E-002,7.517682760953903E-002,-8.929733037948608E-001,3.750557899475098E-001,
1.166900000000000E+009,5.134637281298637E-002,7.502271234989166E-002,-8.768091797828674E-001,3.946477472782135E-001,5.134637281298637E-002,7.502271234989166E-002,-8.768091797828674E-001,3.946477472782135E-001,
1.175266666666667E+009,6.679926067590714E-002,6.436979025602341E-002,-8.710655570030212E-001,4.237630069255829E-001,6.679926067590714E-002,6.436979025602341E-002,-8.710655570030212E-001,4.237630069255829E-001,
1.183633333333334E+009,7.832014560699463E-002,5.000087991356850E-002,-8.698887228965759E-001,4.354835152626038E-001,7.832014560699463E-002,5.000087991356850E-002,-8.698887228965759E-001,4.354835152626038E-001,
1.192000000000000E+009,7.791211456060410E-002,3.167159482836723E-002,-8.570861816406250E-001,4.577720761299133E-001,7.791211456060410E-002,3.167159482836723E-002,-8.570861816406250E-001,4.577720761299133E-001,
1.200366666666667E+009,6.827569007873535E-002,1.556775346398354E-002,-8.449588418006897E-001,4.791919887065888E-001,6.827569007873535E-002,1.556775346398354E-002,-8.449588418006897E-001,4.791919887065888E-001,
1.208733333333334E+009,5.325289070606232E-002,7.017595693469048E-003,-8.377816081047058E-001,5.212116241455078E-001,5.325289070606232E-002,7.017595693469048E-003,-8.377816081047058E-001,5.212116241455078E-001,
1.217100000000000E+009,3.740498423576355E-002,8.409154601395130E-003,-8.330813646316528E-001,5.310109257698059E-001,3.740498423576355E-002,8.409154601395130E-003,-8.330813646316528E-001,5.310109257698059E-001,
1.225466666666667E+009,2.525780908763409E-002,1.915057189762592E-002,-8.011192083358765E-001,5.553667545318604E-001,2.525780908763409E-002,1.915057189762592E-002,-8.011192083358765E-001,5.553667545318604E-001,
1.233833333333334E+009,2.107528224587441E-002,3.544306755065918E-002,-7.958739995956421E-001,5.665093064308167E-001,2.107528224587441E-002,3.544306755065918E-002,-7.958739995956421E-001,5.665093064308167E-001,
1.242200000000000E+009,2.955416403710842E-002,4.936888813972473E-002,-7.704691290855408E-001,5.994373559951782E-001,2.955416403710842E-002,4.936888813972473E-002,-7.704691290855408E-001,5.994373559951782E-001,
1.250566666666667E+009,4.265611246228218E-002,5.900807678699493E-002,-7.487851977348328E-001,6.045308709144592E-001,4.265611246228218E-002,5.900807678699493E-002,-7.487851977348328E-001,6.045308709144592E-001,
1.258933333333334E+009,6.304208934307098E-002,5.889069288969040E-002,-7.435126900672913E-001,6.262139678001404E-001,6.304208934307098E-002,5.889069288969040E-002,-7.435126900672913E-001,6.262139678001404E-001,
1.267300000000000E+009,8.213187009096146E-002,4.803444817662239E-002,-7.247029542922974E-001,6.399024724960327E-001,8.213187009096146E-002,4.803444817662239E-002,-7.247029542922974E-001,6.399024724960327E-001,
1.275666666666667E+009,9.093055874109268E-002,3.026045300066471E-002,-7.127197384834290E-001,6.477881073951721E-001,9.093055874109268E-002,3.026045300066471E-002,-7.127197384834290E-001,6.477881073951721E-001,
1.284033333333334E+009,9.279680997133255E-002,9.611165151000023E-003,-6.970003843307495E-001,6.894719004631043E-001,9.279680997133255E-002,9.611165151000023E-003,-6.970003843307495E-001,6.894719004631043E-001,
1.292400000000000E+009,8.226084709167481E-002,-8.565572090446949E-003,-6.850744485855103E-001,6.928651928901672E-001,8.226084709167481E-002,-8.565572090446949E-003,-6.850744485855103E-001,6.928651928901672E-001,
1.300766666666667E+009,6.277452409267426E-002,-1.667358726263046E-002,-6.628245115280151E-001,7.171262502670288E-001,6.277452409267426E-002,-1.667358726263046E-002,-6.628245115280151E-001,7.171262502670288E-001,
1.309133333333334E+009,4.255245998501778E-002,-1.506289839744568E-002,-6.379042267799377E-001,7.317142486572266E-001,4.255245998501778E-002,-1.506289839744568E-002,-6.379042267799377E-001,7.317142486572266E-001,
1.317500000000000E+009,2.819258160889149E-002,-3.159422660246491E-003,-6.255714893341065E-001,7.617327570915222E-001,2.819258160889149E-002,-3.159422660246491E-003,-6.255714893341065E-001,7.617327570915222E-001,
1.325866666666667E+009,2.368736453354359E-002,1.351134292781353E-002,-6.053557991981506E-001,7.762825489044190E-001,2.368736453354359E-002,1.351134292781353E-002,-6.053557991981506E-001,7.762825489044190E-001,
1.334233333333334E+009,3.190566599369049E-002,3.067617677152157E-002,-5.868340730667114E-001,7.818089723587036E-001,3.190566599369049E-002,3.067617677152157E-002,-5.868340730667114E-001,7.818089723587036E-001,
1.342600000000000E+009,4.739620536565781E-002,3.921668604016304E-002,-5.695317387580872E-001,7.984637618064880E-001,4.739620536565781E-002,3.921668604016304E-002,-5.695317387580872E-001,7.984637618064880E-001,
1.350966666666667E+009,6.742165982723236E-002,3.617130219936371E-002,-5.435432791709900E-001,8.096176385879517E-001,6.742165982723236E-002,3.617130219936371E-002,-5.435432791709900E-001,8.096176385879517E-001,
1.359333333333334E+009,8.217464387416840E-002,2.253765054047108E-002,-5.308845043182373E-001,8.098298311233521E-001,8.217464387416840E-002,2.253765054047108E-002,-5.308845043182373E-001,8.098298311233521E-001,
1.367700000000000E+009,8.802843838930130E-002,3.047850914299488E-003,-4.973996281623840E-001,8.282186985015869E-001,8.802843838930130E-002,3.047850914299488E-003,-4.973996281623840E-001,8.282186985015869E-001,
1.376066666666667E+009,8.418523520231247E-002,-1.868009380996227E-002,-4.826768338680267E-001,8.374930024147034E-001,8.418523520231247E-002,-1.868009380996227E-002,-4.826768338680267E-001,8.374930024147034E-001,
1.384433333333334E+009,6.728291511535645E-002,-3.347289189696312E-002,-4.678356051445007E-001,8.685621023178101E-001,6.728291511535645E-002,-3.347289189696312E-002,-4.678356051445007E-001,8.685621023178101E-001,
1.392800000000000E+009,4.675884917378426E-002,-3.537308797240257E-002,-4.468541443347931E-001,8.766413331031799E-001,4.675884917378426E-002,-3.537308797240257E-002,-4.468541443347931E-001,8.766413331031799E-001,
1.401166666666667E+009,2.645110152661800E-002,-2.772172540426254E-002,-4.195197820663452E-001,8.837382197380066E-001,2.645110152661800E-002,-2.772172540426254E-002,-4.195197820663452E-001,8.837382197380066E-001,
1.409533333333334E+009,1.324633974581957E-002,-1.014172937721014E-002,-3.903225362300873E-001,8.981830477714539E-001,1.324633974581957E-002,-1.014172937721014E-002,-3.903225362300873E-001,8.981830477714539E-001,
1.417900000000000E+009,1.411987654864788E-002,1.276646181941032E-002,-3.707017898559570E-001,8.936931490898132E-001,1.411987654864788E-002,1.276646181941032E-002,-3.707017898559570E-001,8.936931490898132E-001,
1.426266666666667E+009,2.476567775011063E-002,2.920556068420410E-002,-3.341621160507202E-001,9.195618033409119E-001,2.476567775011063E-002,2.920556068420410E-002,-3.341621160507202E-001,9.195618033409119E-001,
1.434633333333334E+009,4.501862078905106E-002,3.700260072946549E-002,-3.246874511241913E-001,9.133423566818237E-001,4.501862078905106E-002,3.700260072946549E-002,-3.246874511241913E-001,9.133423566818237E-001,
1.443000000000000E+009,6.525450944900513E-002,3.379204124212265E-002,-3.005739748477936E-001,9.207034707069397E-001,6.525450944900513E-002,3.379204124212265E-002,-3.005739748477936E-001,9.207034707069397E-001,
1.451366666666667E+009,8.112593740224838E-002,1.801055297255516E-002,-2.751187682151794E-001,9.210043549537659E-001,8.112593740224838E-002,1.801055297255516E-002,-2.751187682151794E-001,9.210043549537659E-001,
1.459733333333334E+009,8.769781887531281E-002,-2.161618089303374E-003,-2.496187686920166E-001,9.472911953926086E-001,8.769781887531281E-002,-2.161618089303374E-003,-2.496187686920166E-001,9.472911953926086E-001,
