% Version 1.00
%
%freq[Hz],re:Trc1_S11,im:Trc1_S11,re:Trc2_S21,im:Trc2_S21,re:Trc3_S11,im:Trc3_S11,re:Trc4_S21,im:Trc4_S21,
6.900000000000000E+008,-3.915667533874512E-002,3.317435458302498E-002,-4.928531646728516E-001,-8.578191995620728E-001,-3.915667533874512E-002,3.317435458302498E-002,-4.928531646728516E-001,-8.578191995620728E-001,
6.983666666666666E+008,-3.096644207835197E-002,3.328997269272804E-002,-5.181916356086731E-001,-8.470284938812256E-001,-3.096644207835197E-002,3.328997269272804E-002,-5.181916356086731E-001,-8.470284938812256E-001,
7.067333333333334E+008,-2.477327734231949E-002,2.853121794760227E-002,-5.427570343017578E-001,-8.210713267326355E-001,-2.477327734231949E-002,2.853121794760227E-002,-5.427570343017578E-001,-8.210713267326355E-001,
7.151000000000000E+008,-2.411003597080708E-002,2.070996910333633E-002,-5.775434970855713E-001,-8.199000358581543E-001,-2.411003597080708E-002,2.070996910333633E-002,-5.775434970855713E-001,-8.199000358581543E-001,
7.234666666666666E+008,-2.569401636719704E-002,1.532317604869604E-002,-5.916722416877747E-001,-8.051118254661560E-001,-2.569401636719704E-002,1.532317604869604E-002,-5.916722416877747E-001,-8.051118254661560E-001,
7.318333333333334E+008,-3.288199752569199E-002,1.284118648618460E-002,-6.083387732505798E-001,-7.873718738555908E-001,-3.288199752569199E-002,1.284118648618460E-002,-6.083387732505798E-001,-7.873718738555908E-001,
7.402000000000000E+008,-3.913505375385284E-002,1.473635435104370E-002,-6.193962097167969E-001,-7.629360556602478E-001,-3.913505375385284E-002,1.473635435104370E-002,-6.193962097167969E-001,-7.629360556602478E-001,
7.485666666666666E+008,-4.470247030258179E-002,2.125695161521435E-002,-6.494696736335754E-001,-7.495266199111939E-001,-4.470247030258179E-002,2.125695161521435E-002,-6.494696736335754E-001,-7.495266199111939E-001,
7.569333333333334E+008,-4.884988069534302E-002,3.083588741719723E-002,-6.685228347778320E-001,-7.361692786216736E-001,-4.884988069534302E-002,3.083588741719723E-002,-6.685228347778320E-001,-7.361692786216736E-001,
7.653000000000000E+008,-4.389977082610130E-002,3.939253464341164E-002,-6.761399507522583E-001,-7.187384963035584E-001,-4.389977082610130E-002,3.939253464341164E-002,-6.761399507522583E-001,-7.187384963035584E-001,
7.736666666666666E+008,-3.813264518976212E-002,4.568209499120712E-002,-6.886956095695496E-001,-7.150810360908508E-001,-3.813264518976212E-002,4.568209499120712E-002,-6.886956095695496E-001,-7.150810360908508E-001,
7.820333333333334E+008,-2.986141853034496E-002,4.941218718886375E-002,-7.225953340530396E-001,-6.868165731430054E-001,-2.986141853034496E-002,4.941218718886375E-002,-7.225953340530396E-001,-6.868165731430054E-001,
7.904000000000000E+008,-2.013943530619144E-002,4.770281910896301E-002,-7.304923534393311E-001,-6.673635244369507E-001,-2.013943530619144E-002,4.770281910896301E-002,-7.304923534393311E-001,-6.673635244369507E-001,
7.987666666666666E+008,-1.592723280191422E-002,4.205852374434471E-002,-7.366179227828980E-001,-6.543120741844177E-001,-1.592723280191422E-002,4.205852374434471E-002,-7.366179227828980E-001,-6.543120741844177E-001,
8.071333333333334E+008,-1.339800655841827E-002,3.518429026007652E-002,-7.639271616935730E-001,-6.211683154106140E-001,-1.339800655841827E-002,3.518429026007652E-002,-7.639271616935730E-001,-6.211683154106140E-001,
8.155000000000000E+008,-1.624421216547489E-002,2.784338220953941E-002,-7.901598215103149E-001,-6.094511151313782E-001,-1.624421216547489E-002,2.784338220953941E-002,-7.901598215103149E-001,-6.094511151313782E-001,
8.238666666666666E+008,-2.271227538585663E-002,2.552331797778606E-002,-7.972392439842224E-001,-5.870347619056702E-001,-2.271227538585663E-002,2.552331797778606E-002,-7.972392439842224E-001,-5.870347619056702E-001,
8.322333333333334E+008,-2.820542454719544E-002,2.659882977604866E-002,-8.065803647041321E-001,-5.698878169059753E-001,-2.820542454719544E-002,2.659882977604866E-002,-8.065803647041321E-001,-5.698878169059753E-001,
8.406000000000000E+008,-3.278475627303124E-002,2.980064414441586E-002,-8.186751604080200E-001,-5.465863347053528E-001,-3.278475627303124E-002,2.980064414441586E-002,-8.186751604080200E-001,-5.465863347053528E-001,
8.489666666666668E+008,-3.476730734109879E-002,4.047298431396484E-002,-8.308486938476563E-001,-5.181754231452942E-001,-3.476730734109879E-002,4.047298431396484E-002,-8.308486938476563E-001,-5.181754231452942E-001,
8.573333333333334E+008,-3.334549069404602E-002,4.823438823223114E-002,-8.343650102615356E-001,-4.871272444725037E-001,-3.334549069404602E-002,4.823438823223114E-002,-8.343650102615356E-001,-4.871272444725037E-001,
8.657000000000000E+008,-2.862947061657906E-002,5.586258694529533E-002,-8.613963723182678E-001,-4.926301836967468E-001,-2.862947061657906E-002,5.586258694529533E-002,-8.613963723182678E-001,-4.926301836967468E-001,
8.740666666666668E+008,-2.030566520988941E-002,6.059588864445686E-002,-8.681701421737671E-001,-4.683620929718018E-001,-2.030566520988941E-002,6.059588864445686E-002,-8.681701421737671E-001,-4.683620929718018E-001,
8.824333333333334E+008,-1.259606797248125E-002,6.196176633238792E-002,-8.861870765686035E-001,-4.437778294086456E-001,-1.259606797248125E-002,6.196176633238792E-002,-8.861870765686035E-001,-4.437778294086456E-001,
8.908000000000000E+008,-4.922543652355671E-003,5.807099863886833E-002,-9.006361961364746E-001,-4.264189898967743E-001,-4.922543652355671E-003,5.807099863886833E-002,-9.006361961364746E-001,-4.264189898967743E-001,
8.991666666666668E+008,2.922046114690602E-004,5.181135237216950E-002,-9.015735983848572E-001,-3.986849486827850E-001,2.922046114690602E-004,5.181135237216950E-002,-9.015735983848572E-001,-3.986849486827850E-001,
9.075333333333334E+008,6.011615041643381E-004,4.360370337963104E-002,-9.148954153060913E-001,-3.727903068065643E-001,6.011615041643381E-004,4.360370337963104E-002,-9.148954153060913E-001,-3.727903068065643E-001,
9.159000000000000E+008,-1.861687167547643E-003,3.738805651664734E-002,-9.365569949150085E-001,-3.499344587326050E-001,-1.861687167547643E-003,3.738805651664734E-002,-9.365569949150085E-001,-3.499344587326050E-001,
9.242666666666668E+008,-8.351679891347885E-003,3.711474314332008E-002,-9.270312190055847E-001,-3.268601894378662E-001,-8.351679891347885E-003,3.711474314332008E-002,-9.270312190055847E-001,-3.268601894378662E-001,
9.326333333333334E+008,-1.319813076406717E-002,3.892038762569428E-002,-9.430888295173645E-001,-3.131633996963501E-001,-1.319813076406717E-002,3.892038762569428E-002,-9.430888295173645E-001,-3.131633996963501E-001,
9.410000000000000E+008,-1.743283681571484E-002,4.300354793667793E-002,-9.543915987014771E-001,-2.765848934650421E-001,-1.743283681571484E-002,4.300354793667793E-002,-9.543915987014771E-001,-2.765848934650421E-001,
9.493666666666668E+008,-1.950458995997906E-002,5.221129581332207E-002,-9.603075385093689E-001,-2.476432323455811E-001,-1.950458995997906E-002,5.221129581332207E-002,-9.603075385093689E-001,-2.476432323455811E-001,
9.577333333333334E+008,-1.647334732115269E-002,6.201091408729553E-002,-9.664672613143921E-001,-2.341812849044800E-001,-1.647334732115269E-002,6.201091408729553E-002,-9.664672613143921E-001,-2.341812849044800E-001,
9.661000000000000E+008,-8.545031771063805E-003,6.879843026399612E-002,-9.681532979011536E-001,-1.925327628850937E-001,-8.545031771063805E-003,6.879843026399612E-002,-9.681532979011536E-001,-1.925327628850937E-001,
9.744666666666668E+008,1.475822879001498E-003,6.926570087671280E-002,-9.671012759208679E-001,-1.809869110584259E-001,1.475822879001498E-003,6.926570087671280E-002,-9.671012759208679E-001,-1.809869110584259E-001,
9.828333333333334E+008,9.973668493330479E-003,7.047449797391892E-002,-9.808859825134277E-001,-1.626862436532974E-001,9.973668493330479E-003,7.047449797391892E-002,-9.808859825134277E-001,-1.626862436532974E-001,
9.912000000000000E+008,2.001900970935822E-002,6.374848634004593E-002,-9.799968600273132E-001,-1.402847915887833E-001,2.001900970935822E-002,6.374848634004593E-002,-9.799968600273132E-001,-1.402847915887833E-001,
9.995666666666668E+008,2.370926924049854E-002,5.550744011998177E-002,-9.918348193168640E-001,-1.039679944515228E-001,2.370926924049854E-002,5.550744011998177E-002,-9.918348193168640E-001,-1.039679944515228E-001,
1.007933333333333E+009,2.747422456741333E-002,4.560396447777748E-002,-1.006401181221008E+000,-8.417080342769623E-002,2.747422456741333E-002,4.560396447777748E-002,-1.006401181221008E+000,-8.417080342769623E-002,
1.016300000000000E+009,2.130763418972492E-002,3.900284320116043E-002,-9.929426312446594E-001,-5.964704230427742E-002,2.130763418972492E-002,3.900284320116043E-002,-9.929426312446594E-001,-5.964704230427742E-002,
1.024666666666667E+009,1.382040977478027E-002,3.465719521045685E-002,-9.888295531272888E-001,-3.414843231439591E-002,1.382040977478027E-002,3.465719521045685E-002,-9.888295531272888E-001,-3.414843231439591E-002,
1.033033333333333E+009,8.799444884061813E-003,3.889945521950722E-002,-9.966487288475037E-001,-7.688305340707302E-003,8.799444884061813E-003,3.889945521950722E-002,-9.966487288475037E-001,-7.688305340707302E-003,
1.041400000000000E+009,2.107578096911311E-003,4.369292408227921E-002,-9.962713122367859E-001,1.410513650625944E-002,2.107578096911311E-003,4.369292408227921E-002,-9.962713122367859E-001,1.410513650625944E-002,
1.049766666666667E+009,4.622312262654305E-003,5.324703454971314E-002,-9.836025834083557E-001,4.894711822271347E-002,4.622312262654305E-003,5.324703454971314E-002,-9.836025834083557E-001,4.894711822271347E-002,
1.058133333333333E+009,8.175795897841454E-003,6.249402835965157E-002,-9.854196310043335E-001,7.078669965267181E-002,8.175795897841454E-003,6.249402835965157E-002,-9.854196310043335E-001,7.078669965267181E-002,
1.066500000000000E+009,1.874565519392490E-002,6.703070551156998E-002,-9.996430873870850E-001,1.056147664785385E-001,1.874565519392490E-002,6.703070551156998E-002,-9.996430873870850E-001,1.056147664785385E-001,
1.074866666666667E+009,3.143328800797463E-002,6.624647974967957E-002,-9.948430061340332E-001,1.259649544954300E-001,3.143328800797463E-002,6.624647974967957E-002,-9.948430061340332E-001,1.259649544954300E-001,
1.083233333333334E+009,3.950927406549454E-002,5.836059898138046E-002,-9.782022833824158E-001,1.471211314201355E-001,3.950927406549454E-002,5.836059898138046E-002,-9.782022833824158E-001,1.471211314201355E-001,
1.091600000000000E+009,4.559398442506790E-002,4.771295189857483E-002,-9.606752395629883E-001,1.667928844690323E-001,4.559398442506790E-002,4.771295189857483E-002,-9.606752395629883E-001,1.667928844690323E-001,
1.099966666666667E+009,4.461861774325371E-002,3.380041569471359E-002,-9.571292400360107E-001,2.053485959768295E-001,4.461861774325371E-002,3.380041569471359E-002,-9.571292400360107E-001,2.053485959768295E-001,
1.108333333333334E+009,3.638921305537224E-002,2.518601156771183E-002,-9.573996067047119E-001,2.126564830541611E-001,3.638921305537224E-002,2.518601156771183E-002,-9.573996067047119E-001,2.126564830541611E-001,
1.116700000000000E+009,2.595394104719162E-002,2.092935331165791E-002,-9.496439695358276E-001,2.472660988569260E-001,2.595394104719162E-002,2.092935331165791E-002,-9.496439695358276E-001,2.472660988569260E-001,
1.125066666666667E+009,1.464595180004835E-002,2.489453926682472E-002,-9.509974122047424E-001,2.624916434288025E-001,1.464595180004835E-002,2.489453926682472E-002,-9.509974122047424E-001,2.624916434288025E-001,
1.133433333333334E+009,6.501980125904083E-003,3.418787196278572E-002,-9.484382867813110E-001,3.077828884124756E-001,6.501980125904083E-003,3.418787196278572E-002,-9.484382867813110E-001,3.077828884124756E-001,
1.141800000000000E+009,4.738491959869862E-003,4.753789678215981E-002,-9.273051619529724E-001,3.230979740619659E-001,4.738491959869862E-003,4.753789678215981E-002,-9.273051619529724E-001,3.230979740619659E-001,
1.150166666666667E+009,1.314952690154314E-002,6.228487938642502E-002,-9.180230498313904E-001,3.225743472576141E-001,1.314952690154314E-002,6.228487938642502E-002,-9.180230498313904E-001,3.225743472576141E-001,
1.158533333333334E+009,2.853410691022873E-002,6.994830071926117E-002,-9.113606214523315E-001,3.634905815124512E-001,2.853410691022873E-002,6.994830071926117E-002,-9.113606214523315E-001,3.634905815124512E-001,
1.166900000000000E+009,4.714666679501534E-002,7.095953077077866E-002,-8.950081467628479E-001,3.848707973957062E-001,4.714666679501534E-002,7.095953077077866E-002,-8.950081467628479E-001,3.848707973957062E-001,
1.175266666666667E+009,6.260197609663010E-002,6.081962957978249E-002,-8.892125487327576E-001,4.145664572715759E-001,6.260197609663010E-002,6.081962957978249E-002,-8.892125487327576E-001,4.145664572715759E-001,
1.183633333333334E+009,7.439073920249939E-002,4.633696749806404E-002,-8.868994712829590E-001,4.269560277462006E-001,7.439073920249939E-002,4.633696749806404E-002,-8.868994712829590E-001,4.269560277462006E-001,
1.192000000000000E+009,7.426122575998306E-002,2.770968899130821E-002,-8.755082488059998E-001,4.493837356567383E-001,7.426122575998306E-002,2.770968899130821E-002,-8.755082488059998E-001,4.493837356567383E-001,
1.200366666666667E+009,6.472256779670715E-002,1.068742759525776E-002,-8.625358343124390E-001,4.701837301254273E-001,6.472256779670715E-002,1.068742759525776E-002,-8.625358343124390E-001,4.701837301254273E-001,
1.208733333333334E+009,4.960694164037705E-002,1.032787491567433E-003,-8.566257953643799E-001,5.115371346473694E-001,4.960694164037705E-002,1.032787491567433E-003,-8.566257953643799E-001,5.115371346473694E-001,
1.217100000000000E+009,3.322472423315048E-002,1.407802337780595E-003,-8.528873920440674E-001,5.211948156356812E-001,3.322472423315048E-002,1.407802337780595E-003,-8.528873920440674E-001,5.211948156356812E-001,
1.225466666666667E+009,2.031875774264336E-002,1.140438672155142E-002,-8.203703165054321E-001,5.467884540557861E-001,2.031875774264336E-002,1.140438672155142E-002,-8.203703165054321E-001,5.467884540557861E-001,
1.233833333333334E+009,1.515935175120831E-002,2.783638983964920E-002,-8.165218234062195E-001,5.587028861045837E-001,1.515935175120831E-002,2.783638983964920E-002,-8.165218234062195E-001,5.587028861045837E-001,
1.242200000000000E+009,2.293499745428562E-002,4.256229102611542E-002,-7.917979359626770E-001,5.927297472953796E-001,2.293499745428562E-002,4.256229102611542E-002,-7.917979359626770E-001,5.927297472953796E-001,
1.250566666666667E+009,3.556736931204796E-002,5.347002297639847E-002,-7.707896828651428E-001,5.992177128791809E-001,3.556736931204796E-002,5.347002297639847E-002,-7.707896828651428E-001,5.992177128791809E-001,
1.258933333333334E+009,5.588878318667412E-002,5.481709912419319E-002,-7.646440267562866E-001,6.214845180511475E-001,5.588878318667412E-002,5.481709912419319E-002,-7.646440267562866E-001,6.214845180511475E-001,
1.267300000000000E+009,7.543193548917770E-002,4.507568851113319E-002,-7.461624145507813E-001,6.352905035018921E-001,7.543193548917770E-002,4.507568851113319E-002,-7.461624145507813E-001,6.352905035018921E-001,
1.275666666666667E+009,8.470304310321808E-002,2.774421870708466E-002,-7.334136366844177E-001,6.430500149726868E-001,8.470304310321808E-002,2.774421870708466E-002,-7.334136366844177E-001,6.430500149726868E-001,
1.284033333333334E+009,8.714693784713745E-002,6.722173653542996E-003,-7.173979878425598E-001,6.873050928115845E-001,8.714693784713745E-002,6.722173653542996E-003,-7.173979878425598E-001,6.873050928115845E-001,
1.292400000000000E+009,7.663856446743012E-002,-1.222353428602219E-002,-7.049695849418640E-001,6.896291375160217E-001,7.663856446743012E-002,-1.222353428602219E-002,-7.049695849418640E-001,6.896291375160217E-001,
1.300766666666667E+009,5.669003725051880E-002,-2.143823727965355E-002,-6.833227872848511E-001,7.135373950004578E-001,5.669003725051880E-002,-2.143823727965355E-002,-6.833227872848511E-001,7.135373950004578E-001,
1.309133333333334E+009,3.580718487501144E-002,-2.081215567886829E-002,-6.584652662277222E-001,7.275782227516174E-001,3.580718487501144E-002,-2.081215567886829E-002,-6.584652662277222E-001,7.275782227516174E-001,
1.317500000000000E+009,2.055436186492443E-002,-9.614355862140656E-003,-6.475841999053955E-001,7.574931979179382E-001,2.055436186492443E-002,-9.614355862140656E-003,-6.475841999053955E-001,7.574931979179382E-001,
1.325866666666667E+009,1.487672887742519E-002,7.081432268023491E-003,-6.291977763175964E-001,7.726618647575378E-001,1.487672887742519E-002,7.081432268023491E-003,-6.291977763175964E-001,7.726618647575378E-001,
1.334233333333334E+009,2.247738838195801E-002,2.494744956493378E-002,-6.099483966827393E-001,7.798967957496643E-001,2.247738838195801E-002,2.494744956493378E-002,-6.099483966827393E-001,7.798967957496643E-001,
1.342600000000000E+009,3.768030554056168E-002,3.462823480367661E-002,-5.933625698089600E-001,7.973352074623108E-001,3.768030554056168E-002,3.462823480367661E-002,-5.933625698089600E-001,7.973352074623108E-001,
1.350966666666667E+009,5.803753808140755E-002,3.302837908267975E-002,-5.670765042304993E-001,8.101754784584045E-001,5.803753808140755E-002,3.302837908267975E-002,-5.670765042304993E-001,8.101754784584045E-001,
1.359333333333334E+009,7.348590344190598E-002,2.052010595798492E-002,-5.527226924896240E-001,8.099122643470764E-001,7.348590344190598E-002,2.052010595798492E-002,-5.527226924896240E-001,8.099122643470764E-001,
1.367700000000000E+009,8.017606288194656E-002,1.198831945657730E-003,-5.197561979293823E-001,8.297232985496521E-001,8.017606288194656E-002,1.198831945657730E-003,-5.197561979293823E-001,8.297232985496521E-001,
1.376066666666667E+009,7.678664475679398E-002,-2.067726664245129E-002,-5.049532055854797E-001,8.391357660293579E-001,7.678664475679398E-002,-2.067726664245129E-002,-5.049532055854797E-001,8.391357660293579E-001,
1.384433333333334E+009,5.994863435626030E-002,-3.631754219532013E-002,-4.904673397541046E-001,8.689467310905457E-001,5.994863435626030E-002,-3.631754219532013E-002,-4.904673397541046E-001,8.689467310905457E-001,
1.392800000000000E+009,3.860164061188698E-002,-3.948692232370377E-002,-4.690734446048737E-001,8.779867887496948E-001,3.860164061188698E-002,-3.948692232370377E-002,-4.690734446048737E-001,8.779867887496948E-001,
1.401166666666667E+009,1.683999598026276E-002,-3.302968293428421E-002,-4.427341222763062E-001,8.857919573783875E-001,1.683999598026276E-002,-3.302968293428421E-002,-4.427341222763062E-001,8.857919573783875E-001,
1.409533333333334E+009,1.963362563401461E-003,-1.574772037565708E-002,-4.142269194126129E-001,9.006747007369995E-001,1.963362563401461E-003,-1.574772037565708E-002,-4.142269194126129E-001,9.006747007369995E-001,
1.417900000000000E+009,1.165315858088434E-003,7.469994481652975E-003,-3.946934342384338E-001,8.963718414306641E-001,1.165315858088434E-003,7.469994481652975E-003,-3.946934342384338E-001,8.963718414306641E-001,
1.426266666666667E+009,1.080520730465651E-002,2.471643872559071E-002,-3.588065803050995E-001,9.241305589675903E-001,1.080520730465651E-002,2.471643872559071E-002,-3.588065803050995E-001,9.241305589675903E-001,
1.434633333333334E+009,3.086050786077976E-002,3.413894027471542E-002,-3.490782082080841E-001,9.182109832763672E-001,3.086050786077976E-002,3.413894027471542E-002,-3.490782082080841E-001,9.182109832763672E-001,
1.443000000000000E+009,5.168183147907257E-002,3.240929171442986E-002,-3.252178132534027E-001,9.271682500839233E-001,5.168183147907257E-002,3.240929171442986E-002,-3.252178132534027E-001,9.271682500839233E-001,
1.451366666666667E+009,6.853864341974258E-002,1.771609671413899E-002,-2.982839643955231E-001,9.286592602729797E-001,6.853864341974258E-002,1.771609671413899E-002,-2.982839643955231E-001,9.286592602729797E-001,
1.459733333333334E+009,7.624154537916184E-002,-1.785898115485907E-003,-2.729972898960114E-001,9.554057121276856E-001,7.624154537916184E-002,-1.785898115485907E-003,-2.729972898960114E-001,9.554057121276856E-001,
