% Version 1.00
%
%freq[Hz],re:Trc1_S11,im:Trc1_S11,re:Trc2_S21,im:Trc2_S21,re:Trc3_S11,im:Trc3_S11,re:Trc4_S21,im:Trc4_S21,
6.900000000000000E+008,-4.382520914077759E-002,3.470683470368385E-002,-4.982974827289581E-001,-8.554351925849915E-001,-4.382520914077759E-002,3.470683470368385E-002,-4.982974827289581E-001,-8.554351925849915E-001,
6.983666666666666E+008,-3.574100881814957E-002,3.512374684214592E-002,-5.235059857368469E-001,-8.441818356513977E-001,-3.574100881814957E-002,3.512374684214592E-002,-5.235059857368469E-001,-8.441818356513977E-001,
7.067333333333334E+008,-2.975616790354252E-002,3.059480153024197E-002,-5.464223623275757E-001,-8.188751339912415E-001,-2.975616790354252E-002,3.059480153024197E-002,-5.464223623275757E-001,-8.188751339912415E-001,
7.151000000000000E+008,-2.937042340636253E-002,2.281170524656773E-002,-5.816637873649597E-001,-8.168724179267883E-001,-2.937042340636253E-002,2.281170524656773E-002,-5.816637873649597E-001,-8.168724179267883E-001,
7.234666666666666E+008,-3.130848705768585E-002,1.739295013248920E-002,-5.949608087539673E-001,-8.016109466552734E-001,-3.130848705768585E-002,1.739295013248920E-002,-5.949608087539673E-001,-8.016109466552734E-001,
7.318333333333334E+008,-3.889467939734459E-002,1.481478381901979E-002,-6.124961972236633E-001,-7.847809195518494E-001,-3.889467939734459E-002,1.481478381901979E-002,-6.124961972236633E-001,-7.847809195518494E-001,
7.402000000000000E+008,-4.531287029385567E-002,1.645399816334248E-002,-6.231364607810974E-001,-7.597744464874268E-001,-4.531287029385567E-002,1.645399816334248E-002,-6.231364607810974E-001,-7.597744464874268E-001,
7.485666666666666E+008,-5.084294825792313E-002,2.311619371175766E-002,-6.530254483222961E-001,-7.467310428619385E-001,-5.084294825792313E-002,2.311619371175766E-002,-6.530254483222961E-001,-7.467310428619385E-001,
7.569333333333334E+008,-5.494756996631622E-002,3.270621970295906E-002,-6.716834902763367E-001,-7.331764698028565E-001,-5.494756996631622E-002,3.270621970295906E-002,-6.716834902763367E-001,-7.331764698028565E-001,
7.653000000000000E+008,-4.971221834421158E-002,4.148386046290398E-002,-6.795287132263184E-001,-7.141887545585632E-001,-4.971221834421158E-002,4.148386046290398E-002,-6.795287132263184E-001,-7.141887545585632E-001,
7.736666666666666E+008,-4.349372535943985E-002,4.809834063053131E-002,-6.922903656959534E-001,-7.105159759521484E-001,-4.349372535943985E-002,4.809834063053131E-002,-6.922903656959534E-001,-7.105159759521484E-001,
7.820333333333334E+008,-3.473743796348572E-002,5.210662260651588E-002,-7.258492112159729E-001,-6.824563145637512E-001,-3.473743796348572E-002,5.210662260651588E-002,-7.258492112159729E-001,-6.824563145637512E-001,
7.904000000000000E+008,-2.470913529396057E-002,5.102760717272759E-002,-7.353549003601074E-001,-6.638632416725159E-001,-2.470913529396057E-002,5.102760717272759E-002,-7.353549003601074E-001,-6.638632416725159E-001,
7.987666666666666E+008,-2.044838480651379E-002,4.568395018577576E-002,-7.406100630760193E-001,-6.483396291732788E-001,-2.044838480651379E-002,4.568395018577576E-002,-7.406100630760193E-001,-6.483396291732788E-001,
8.071333333333334E+008,-1.836498826742172E-002,3.908734768629074E-002,-7.670742869377136E-001,-6.158984303474426E-001,-1.836498826742172E-002,3.908734768629074E-002,-7.670742869377136E-001,-6.158984303474426E-001,
8.155000000000000E+008,-2.145978808403015E-002,3.198228776454926E-002,-7.937991619110107E-001,-6.054466962814331E-001,-2.145978808403015E-002,3.198228776454926E-002,-7.937991619110107E-001,-6.054466962814331E-001,
8.238666666666666E+008,-2.826713398098946E-002,2.977084740996361E-002,-8.000525236129761E-001,-5.819306969642639E-001,-2.826713398098946E-002,2.977084740996361E-002,-8.000525236129761E-001,-5.819306969642639E-001,
8.322333333333334E+008,-3.417852893471718E-002,3.092909790575504E-002,-8.096213936805725E-001,-5.643607378005981E-001,-3.417852893471718E-002,3.092909790575504E-002,-8.096213936805725E-001,-5.643607378005981E-001,
8.406000000000000E+008,-3.919586539268494E-002,3.393925726413727E-002,-8.216699361801148E-001,-5.418476462364197E-001,-3.919586539268494E-002,3.393925726413727E-002,-8.216699361801148E-001,-5.418476462364197E-001,
8.489666666666668E+008,-4.113835841417313E-002,4.492250457406044E-002,-8.338785171508789E-001,-5.128462910652161E-001,-4.113835841417313E-002,4.492250457406044E-002,-8.338785171508789E-001,-5.128462910652161E-001,
8.573333333333334E+008,-3.933612629771233E-002,5.262234434485436E-002,-8.362954854965210E-001,-4.825869500637054E-001,-3.933612629771233E-002,5.262234434485436E-002,-8.362954854965210E-001,-4.825869500637054E-001,
8.657000000000000E+008,-3.419167548418045E-002,6.021538749337196E-002,-8.646646738052368E-001,-4.865231215953827E-001,-3.419167548418045E-002,6.021538749337196E-002,-8.646646738052368E-001,-4.865231215953827E-001,
8.740666666666668E+008,-2.523930370807648E-002,6.526836007833481E-002,-8.704310655593872E-001,-4.619183838367462E-001,-2.523930370807648E-002,6.526836007833481E-002,-8.704310655593872E-001,-4.619183838367462E-001,
8.824333333333334E+008,-1.703395135700703E-002,6.668063998222351E-002,-8.889613151550293E-001,-4.376485645771027E-001,-1.703395135700703E-002,6.668063998222351E-002,-8.889613151550293E-001,-4.376485645771027E-001,
8.908000000000000E+008,-8.894952945411205E-003,6.312047690153122E-002,-9.026634693145752E-001,-4.199553132057190E-001,-8.894952945411205E-003,6.312047690153122E-002,-9.026634693145752E-001,-4.199553132057190E-001,
8.991666666666668E+008,-3.503952641040087E-003,5.717266723513603E-002,-9.031607508659363E-001,-3.931256532669067E-001,-3.503952641040087E-003,5.717266723513603E-002,-9.031607508659363E-001,-3.931256532669067E-001,
9.075333333333334E+008,-3.221811726689339E-003,4.946398735046387E-002,-9.172223806381226E-001,-3.675256371498108E-001,-3.221811726689339E-003,4.946398735046387E-002,-9.172223806381226E-001,-3.675256371498108E-001,
9.159000000000000E+008,-6.138471886515617E-003,4.357723146677017E-002,-9.384493827819824E-001,-3.433146178722382E-001,-6.138471886515617E-003,4.357723146677017E-002,-9.384493827819824E-001,-3.433146178722382E-001,
9.242666666666668E+008,-1.309440564364195E-002,4.354398325085640E-002,-9.297503232955933E-001,-3.210465610027313E-001,-1.309440564364195E-002,4.354398325085640E-002,-9.297503232955933E-001,-3.210465610027313E-001,
9.326333333333334E+008,-1.846946217119694E-002,4.557254910469055E-002,-9.459732770919800E-001,-3.071303367614746E-001,-1.846946217119694E-002,4.557254910469055E-002,-9.459732770919800E-001,-3.071303367614746E-001,
9.410000000000000E+008,-2.290319092571735E-002,4.974806308746338E-002,-9.565122127532959E-001,-2.714251577854157E-001,-2.290319092571735E-002,4.974806308746338E-002,-9.565122127532959E-001,-2.714251577854157E-001,
9.493666666666668E+008,-2.477709949016571E-002,5.886818468570709E-002,-9.614900350570679E-001,-2.407814115285873E-001,-2.477709949016571E-002,5.886818468570709E-002,-9.614900350570679E-001,-2.407814115285873E-001,
9.577333333333334E+008,-2.148723602294922E-002,6.848036497831345E-002,-9.673029780387878E-001,-2.270139157772064E-001,-2.148723602294922E-002,6.848036497831345E-002,-9.673029780387878E-001,-2.270139157772064E-001,
9.661000000000000E+008,-1.293670292943716E-002,7.510300725698471E-002,-9.687028527259827E-001,-1.852834075689316E-001,-1.293670292943716E-002,7.510300725698471E-002,-9.687028527259827E-001,-1.852834075689316E-001,
9.744666666666668E+008,-2.241450361907482E-003,7.537783682346344E-002,-9.666224718093872E-001,-1.749172210693359E-001,-2.241450361907482E-003,7.537783682346344E-002,-9.666224718093872E-001,-1.749172210693359E-001,
9.828333333333334E+008,6.951201707124710E-003,7.639433443546295E-002,-9.824752807617188E-001,-1.552743613719940E-001,6.951201707124710E-003,7.639433443546295E-002,-9.824752807617188E-001,-1.552743613719940E-001,
9.912000000000000E+008,1.746988296508789E-002,6.991095840930939E-002,-9.797942638397217E-001,-1.330889314413071E-001,1.746988296508789E-002,6.991095840930939E-002,-9.797942638397217E-001,-1.330889314413071E-001,
9.995666666666668E+008,2.116626501083374E-002,6.204684823751450E-002,-9.923487901687622E-001,-9.634739905595779E-002,2.116626501083374E-002,6.204684823751450E-002,-9.923487901687622E-001,-9.634739905595779E-002,
1.007933333333333E+009,2.460349909961224E-002,5.252650752663612E-002,-1.006271362304688E+000,-7.891444861888886E-002,2.460349909961224E-002,5.252650752663612E-002,-1.006271362304688E+000,-7.891444861888886E-002,
1.016300000000000E+009,1.831158250570297E-002,4.647899791598320E-002,-9.925888776779175E-001,-5.255763605237007E-002,1.831158250570297E-002,4.647899791598320E-002,-9.925888776779175E-001,-5.255763605237007E-002,
1.024666666666667E+009,1.037521194666624E-002,4.262226447463036E-002,-9.888113737106323E-001,-2.646742388606072E-002,1.037521194666624E-002,4.262226447463036E-002,-9.888113737106323E-001,-2.646742388606072E-002,
1.033033333333333E+009,4.998357035219669E-003,4.727592691779137E-002,-9.955959320068359E-001,-2.028803719440475E-004,4.998357035219669E-003,4.727592691779137E-002,-9.955959320068359E-001,-2.028803719440475E-004,
1.041400000000000E+009,-1.970976125448942E-003,5.232559144496918E-002,-9.957645535469055E-001,2.084441483020783E-002,-1.970976125448942E-003,5.232559144496918E-002,-9.957645535469055E-001,2.084441483020783E-002,
1.049766666666667E+009,8.315540617331862E-004,6.183988600969315E-002,-9.816045165061951E-001,5.685108155012131E-002,8.315540617331862E-004,6.183988600969315E-002,-9.816045165061951E-001,5.685108155012131E-002,
1.058133333333333E+009,4.788951948285103E-003,7.081308215856552E-002,-9.834677577018738E-001,7.892058044672012E-002,4.788951948285103E-003,7.081308215856552E-002,-9.834677577018738E-001,7.892058044672012E-002,
1.066500000000000E+009,1.587937586009502E-002,7.489346712827683E-002,-9.985458850860596E-001,1.127743199467659E-001,1.587937586009502E-002,7.489346712827683E-002,-9.985458850860596E-001,1.127743199467659E-001,
1.074866666666667E+009,2.935346961021423E-002,7.347208261489868E-002,-9.923946857452393E-001,1.335413753986359E-001,2.935346961021423E-002,7.347208261489868E-002,-9.923946857452393E-001,1.335413753986359E-001,
1.083233333333334E+009,3.795198723673821E-002,6.521303206682205E-002,-9.757682085037231E-001,1.543948054313660E-001,3.795198723673821E-002,6.521303206682205E-002,-9.757682085037231E-001,1.543948054313660E-001,
1.091600000000000E+009,4.449186474084854E-002,5.453033745288849E-002,-9.584848284721375E-001,1.739117354154587E-001,4.449186474084854E-002,5.453033745288849E-002,-9.584848284721375E-001,1.739117354154587E-001,
1.099966666666667E+009,4.362272098660469E-002,4.095684736967087E-002,-9.538339972496033E-001,2.123464941978455E-001,4.362272098660469E-002,4.095684736967087E-002,-9.538339972496033E-001,2.123464941978455E-001,
1.108333333333334E+009,3.543876856565476E-002,3.293291106820107E-002,-9.537935853004456E-001,2.207022905349731E-001,3.543876856565476E-002,3.293291106820107E-002,-9.537935853004456E-001,2.207022905349731E-001,
1.116700000000000E+009,2.485616318881512E-002,2.971470728516579E-002,-9.468907713890076E-001,2.539806067943573E-001,2.485616318881512E-002,2.971470728516579E-002,-9.468907713890076E-001,2.539806067943573E-001,
1.125066666666667E+009,1.346884481608868E-002,3.443279117345810E-002,-9.475860595703125E-001,2.701008021831513E-001,1.346884481608868E-002,3.443279117345810E-002,-9.475860595703125E-001,2.701008021831513E-001,
1.133433333333334E+009,5.374784115701914E-003,4.448860511183739E-002,-9.454793930053711E-001,3.151274919509888E-001,5.374784115701914E-003,4.448860511183739E-002,-9.454793930053711E-001,3.151274919509888E-001,
1.141800000000000E+009,3.776817815378308E-003,5.816272273659706E-002,-9.225268959999085E-001,3.298223614692688E-001,3.776817815378308E-003,5.816272273659706E-002,-9.225268959999085E-001,3.298223614692688E-001,
1.150166666666667E+009,1.246145460754633E-002,7.259666174650192E-002,-9.139120578765869E-001,3.306267857551575E-001,1.246145460754633E-002,7.259666174650192E-002,-9.139120578765869E-001,3.306267857551575E-001,
1.158533333333334E+009,2.803596109151840E-002,7.979405671358109E-002,-9.065827727317810E-001,3.708423972129822E-001,2.803596109151840E-002,7.979405671358109E-002,-9.065827727317810E-001,3.708423972129822E-001,
1.166900000000000E+009,4.703718796372414E-002,7.974175363779068E-002,-8.902729749679565E-001,3.911243677139282E-001,4.703718796372414E-002,7.974175363779068E-002,-8.902729749679565E-001,3.911243677139282E-001,
1.175266666666667E+009,6.289803981781006E-002,6.885241717100143E-002,-8.849321007728577E-001,4.206460416316986E-001,6.289803981781006E-002,6.885241717100143E-002,-8.849321007728577E-001,4.206460416316986E-001,
1.183633333333334E+009,7.490688562393189E-002,5.396259203553200E-002,-8.834784626960754E-001,4.326365292072296E-001,7.490688562393189E-002,5.396259203553200E-002,-8.834784626960754E-001,4.326365292072296E-001,
1.192000000000000E+009,7.491070777177811E-002,3.497660532593727E-002,-8.707653880119324E-001,4.551832973957062E-001,7.491070777177811E-002,3.497660532593727E-002,-8.707653880119324E-001,4.551832973957062E-001,
1.200366666666667E+009,6.549247354269028E-002,1.827115751802921E-002,-8.579627871513367E-001,4.768429100513458E-001,6.549247354269028E-002,1.827115751802921E-002,-8.579627871513367E-001,4.768429100513458E-001,
1.208733333333334E+009,5.053152143955231E-002,9.438194334506989E-003,-8.513506054878235E-001,5.186706185340881E-001,5.053152143955231E-002,9.438194334506989E-003,-8.513506054878235E-001,5.186706185340881E-001,
1.217100000000000E+009,3.454292193055153E-002,1.084131468087435E-002,-8.474848270416260E-001,5.280535221099854E-001,3.454292193055153E-002,1.084131468087435E-002,-8.474848270416260E-001,5.280535221099854E-001,
1.225466666666667E+009,2.197914570569992E-002,2.190821804106236E-002,-8.151372671127319E-001,5.528175830841065E-001,2.197914570569992E-002,2.190821804106236E-002,-8.151372671127319E-001,5.528175830841065E-001,
1.233833333333334E+009,1.726980507373810E-002,3.885292634367943E-002,-8.103064894676209E-001,5.642294287681580E-001,1.726980507373810E-002,3.885292634367943E-002,-8.103064894676209E-001,5.642294287681580E-001,
1.242200000000000E+009,2.530577406287193E-002,5.359260365366936E-002,-7.851252555847168E-001,5.978932380676270E-001,2.530577406287193E-002,5.359260365366936E-002,-7.851252555847168E-001,5.978932380676270E-001,
1.250566666666667E+009,3.801021724939346E-002,6.405929476022720E-002,-7.637801766395569E-001,6.036731004714966E-001,3.801021724939346E-002,6.405929476022720E-002,-7.637801766395569E-001,6.036731004714966E-001,
1.258933333333334E+009,5.822609364986420E-002,6.440322846174240E-002,-7.586534023284912E-001,6.258930563926697E-001,5.822609364986420E-002,6.440322846174240E-002,-7.586534023284912E-001,6.258930563926697E-001,
1.267300000000000E+009,7.745634764432907E-002,5.384168401360512E-002,-7.395914793014526E-001,6.402804255485535E-001,7.745634764432907E-002,5.384168401360512E-002,-7.395914793014526E-001,6.402804255485535E-001,
1.275666666666667E+009,8.647798001766205E-002,3.576250746846199E-002,-7.270936965942383E-001,6.481716632843018E-001,8.647798001766205E-002,3.576250746846199E-002,-7.270936965942383E-001,6.481716632843018E-001,
1.284033333333334E+009,8.875296264886856E-002,1.451030839234591E-002,-7.111051082611084E-001,6.907221078872681E-001,8.875296264886856E-002,1.451030839234591E-002,-7.111051082611084E-001,6.907221078872681E-001,
1.292400000000000E+009,7.851067185401917E-002,-4.393505863845348E-003,-6.993101835250855E-001,6.941157579421997E-001,7.851067185401917E-002,-4.393505863845348E-003,-6.993101835250855E-001,6.941157579421997E-001,
1.300766666666667E+009,5.913661792874336E-002,-1.312561053782702E-002,-6.766816377639771E-001,7.179983854293823E-001,5.913661792874336E-002,-1.312561053782702E-002,-6.766816377639771E-001,7.179983854293823E-001,
1.309133333333334E+009,3.896842524409294E-002,-1.177427079528570E-002,-6.522417664527893E-001,7.323355078697205E-001,3.896842524409294E-002,-1.177427079528570E-002,-6.522417664527893E-001,7.323355078697205E-001,
1.317500000000000E+009,2.443457581102848E-002,2.200917078880593E-004,-6.398593187332153E-001,7.631950974464417E-001,2.443457581102848E-002,2.200917078880593E-004,-6.398593187332153E-001,7.631950974464417E-001,
1.325866666666667E+009,1.966234669089317E-002,1.745541393756867E-002,-6.201841235160828E-001,7.779476046562195E-001,1.966234669089317E-002,1.745541393756867E-002,-6.201841235160828E-001,7.779476046562195E-001,
1.334233333333334E+009,2.767754532396793E-002,3.559235855937004E-002,-6.021245121955872E-001,7.838909029960632E-001,2.767754532396793E-002,3.559235855937004E-002,-6.021245121955872E-001,7.838909029960632E-001,
1.342600000000000E+009,4.309285804629326E-002,4.509571567177773E-002,-5.848248600959778E-001,8.011559844017029E-001,4.309285804629326E-002,4.509571567177773E-002,-5.848248600959778E-001,8.011559844017029E-001,
1.350966666666667E+009,6.307865679264069E-002,4.274688661098480E-002,-5.588091611862183E-001,8.135947585105896E-001,6.307865679264069E-002,4.274688661098480E-002,-5.588091611862183E-001,8.135947585105896E-001,
1.359333333333334E+009,7.788766175508499E-002,2.947963401675224E-002,-5.460538864135742E-001,8.133168220520020E-001,7.788766175508499E-002,2.947963401675224E-002,-5.460538864135742E-001,8.133168220520020E-001,
1.367700000000000E+009,8.372402936220169E-002,9.724312461912632E-003,-5.118516087532044E-001,8.325874209403992E-001,8.372402936220169E-002,9.724312461912632E-003,-5.118516087532044E-001,8.325874209403992E-001,
1.376066666666667E+009,7.994722574949265E-002,-1.251164916902781E-002,-4.968343675136566E-001,8.420170545578003E-001,7.994722574949265E-002,-1.251164916902781E-002,-4.968343675136566E-001,8.420170545578003E-001,
1.384433333333334E+009,6.289263069629669E-002,-2.817608043551445E-002,-4.817672073841095E-001,8.726766109466553E-001,6.289263069629669E-002,-2.817608043551445E-002,-4.817672073841095E-001,8.726766109466553E-001,
1.392800000000000E+009,4.223868623375893E-002,-3.097460418939591E-002,-4.606183767318726E-001,8.812708258628845E-001,4.223868623375893E-002,-3.097460418939591E-002,-4.606183767318726E-001,8.812708258628845E-001,
1.401166666666667E+009,2.167307771742344E-002,-2.399379760026932E-002,-4.336854815483093E-001,8.882114291191101E-001,2.167307771742344E-002,-2.399379760026932E-002,-4.336854815483093E-001,8.882114291191101E-001,
1.409533333333334E+009,8.286057040095329E-003,-6.581093184649944E-003,-4.046272039413452E-001,9.025769829750061E-001,8.286057040095329E-003,-6.581093184649944E-003,-4.046272039413452E-001,9.025769829750061E-001,
1.417900000000000E+009,8.829497732222080E-003,1.687012426555157E-002,-3.857970833778381E-001,8.985230326652527E-001,8.829497732222080E-003,1.687012426555157E-002,-3.857970833778381E-001,8.985230326652527E-001,
1.426266666666667E+009,1.947170123457909E-002,3.430170193314552E-002,-3.491275906562805E-001,9.255644083023071E-001,1.947170123457909E-002,3.430170193314552E-002,-3.491275906562805E-001,9.255644083023071E-001,
1.434633333333334E+009,3.992643207311630E-002,4.334215819835663E-002,-3.395801782608032E-001,9.197108149528503E-001,3.992643207311630E-002,4.334215819835663E-002,-3.395801782608032E-001,9.197108149528503E-001,
1.443000000000000E+009,6.051146239042282E-002,4.132362455129623E-002,-3.154059350490570E-001,9.279639720916748E-001,6.051146239042282E-002,4.132362455129623E-002,-3.154059350490570E-001,9.279639720916748E-001,
1.451366666666667E+009,7.668970525264740E-002,2.631869539618492E-002,-2.891401946544647E-001,9.288765192031860E-001,7.668970525264740E-002,2.631869539618492E-002,-2.891401946544647E-001,9.288765192031860E-001,
1.459733333333334E+009,8.349197357892990E-002,6.357621867209673E-003,-2.638272643089294E-001,9.561988115310669E-001,8.349197357892990E-002,6.357621867209673E-003,-2.638272643089294E-001,9.561988115310669E-001,
