% Version 1.00
%
%freq[Hz],re:Trc1_S11,im:Trc1_S11,re:Trc2_S21,im:Trc2_S21,re:Trc3_S11,im:Trc3_S11,re:Trc4_S21,im:Trc4_S21,
6.900000000000000E+008,-4.220429807901382E-002,3.113351576030254E-002,-4.948269724845886E-001,-8.493537902832031E-001,-4.220429807901382E-002,3.113351576030254E-002,-4.948269724845886E-001,-8.493537902832031E-001,
6.983666666666666E+008,-3.400463610887528E-002,3.152713924646378E-002,-5.233989357948303E-001,-8.358524441719055E-001,-3.400463610887528E-002,3.152713924646378E-002,-5.233989357948303E-001,-8.358524441719055E-001,
7.067333333333334E+008,-2.841415069997311E-002,2.688669785857201E-002,-5.443484783172607E-001,-8.108682036399841E-001,-2.841415069997311E-002,2.688669785857201E-002,-5.443484783172607E-001,-8.108682036399841E-001,
7.151000000000000E+008,-2.783208340406418E-002,1.924933493137360E-002,-5.811370611190796E-001,-8.093004226684570E-001,-2.783208340406418E-002,1.924933493137360E-002,-5.811370611190796E-001,-8.093004226684570E-001,
7.234666666666666E+008,-3.018445707857609E-002,1.406186725944281E-002,-5.965718626976013E-001,-7.937842607498169E-001,-3.018445707857609E-002,1.406186725944281E-002,-5.965718626976013E-001,-7.937842607498169E-001,
7.318333333333334E+008,-3.742730244994164E-002,1.154858246445656E-002,-6.103736162185669E-001,-7.733905911445618E-001,-3.742730244994164E-002,1.154858246445656E-002,-6.103736162185669E-001,-7.733905911445618E-001,
7.402000000000000E+008,-4.383186995983124E-002,1.327294111251831E-002,-6.231653690338135E-001,-7.493280768394470E-001,-4.383186995983124E-002,1.327294111251831E-002,-6.231653690338135E-001,-7.493280768394470E-001,
7.485666666666666E+008,-4.903216660022736E-002,2.013350836932659E-002,-6.529878973960877E-001,-7.387403845787048E-001,-4.903216660022736E-002,2.013350836932659E-002,-6.529878973960877E-001,-7.387403845787048E-001,
7.569333333333334E+008,-5.286130309104919E-002,2.983136661350727E-002,-6.696814894676209E-001,-7.262483835220337E-001,-5.286130309104919E-002,2.983136661350727E-002,-6.696814894676209E-001,-7.262483835220337E-001,
7.653000000000000E+008,-4.756200686097145E-002,3.835573792457581E-002,-6.777853965759277E-001,-7.051367759704590E-001,-4.756200686097145E-002,3.835573792457581E-002,-6.777853965759277E-001,-7.051367759704590E-001,
7.736666666666666E+008,-4.125686734914780E-002,4.496408998966217E-002,-6.911163926124573E-001,-7.005560994148254E-001,-4.125686734914780E-002,4.496408998966217E-002,-6.911163926124573E-001,-7.005560994148254E-001,
7.820333333333334E+008,-3.261171281337738E-002,4.902916401624680E-002,-7.233690619468689E-001,-6.744253635406494E-001,-3.261171281337738E-002,4.902916401624680E-002,-7.233690619468689E-001,-6.744253635406494E-001,
7.904000000000000E+008,-2.300854586064816E-002,4.796275496482849E-002,-7.328701019287109E-001,-6.578335165977478E-001,-2.300854586064816E-002,4.796275496482849E-002,-7.328701019287109E-001,-6.578335165977478E-001,
7.987666666666666E+008,-1.880597323179245E-002,4.262804239988327E-002,-7.370908856391907E-001,-6.381765604019165E-001,-1.880597323179245E-002,4.262804239988327E-002,-7.370908856391907E-001,-6.381765604019165E-001,
8.071333333333334E+008,-1.719094440340996E-002,3.617553785443306E-002,-7.625496983528137E-001,-6.096783280372620E-001,-1.719094440340996E-002,3.617553785443306E-002,-7.625496983528137E-001,-6.096783280372620E-001,
8.155000000000000E+008,-2.014751546084881E-002,2.912078797817230E-002,-7.913069725036621E-001,-5.972759127616882E-001,-2.014751546084881E-002,2.912078797817230E-002,-7.913069725036621E-001,-5.972759127616882E-001,
8.238666666666666E+008,-2.695823833346367E-002,2.700768411159515E-002,-7.986438274383545E-001,-5.740005970001221E-001,-2.695823833346367E-002,2.700768411159515E-002,-7.986438274383545E-001,-5.740005970001221E-001,
8.322333333333334E+008,-3.245043754577637E-002,2.814606763422489E-002,-8.052984476089478E-001,-5.554270148277283E-001,-3.245043754577637E-002,2.814606763422489E-002,-8.052984476089478E-001,-5.554270148277283E-001,
8.406000000000000E+008,-3.699497133493424E-002,3.111712448298931E-002,-8.181465864181519E-001,-5.331972837448120E-001,-3.699497133493424E-002,3.111712448298931E-002,-8.181465864181519E-001,-5.331972837448120E-001,
8.489666666666668E+008,-3.887012973427773E-002,4.215637221932411E-002,-8.307801485061646E-001,-5.049426555633545E-001,-3.887012973427773E-002,4.215637221932411E-002,-8.307801485061646E-001,-5.049426555633545E-001,
8.573333333333334E+008,-3.690842539072037E-002,4.975232109427452E-002,-8.315085768699646E-001,-4.729721546173096E-001,-3.690842539072037E-002,4.975232109427452E-002,-8.315085768699646E-001,-4.729721546173096E-001,
8.657000000000000E+008,-3.172381222248077E-002,5.731188878417015E-002,-8.601090312004089E-001,-4.758100807666779E-001,-3.172381222248077E-002,5.731188878417015E-002,-8.601090312004089E-001,-4.758100807666779E-001,
8.740666666666668E+008,-2.260456420481205E-002,6.214735284447670E-002,-8.683584332466126E-001,-4.528373181819916E-001,-2.260456420481205E-002,6.214735284447670E-002,-8.683584332466126E-001,-4.528373181819916E-001,
8.824333333333334E+008,-1.451492588967085E-002,6.377968937158585E-002,-8.840043544769287E-001,-4.299464523792267E-001,-1.451492588967085E-002,6.377968937158585E-002,-8.840043544769287E-001,-4.299464523792267E-001,
8.908000000000000E+008,-6.321130786091089E-003,6.007337570190430E-002,-8.975179195404053E-001,-4.098234474658966E-001,-6.321130786091089E-003,6.007337570190430E-002,-8.975179195404053E-001,-4.098234474658966E-001,
8.991666666666668E+008,-1.210181624628604E-003,5.438250303268433E-002,-8.973681330680847E-001,-3.846786916255951E-001,-1.210181624628604E-003,5.438250303268433E-002,-8.973681330680847E-001,-3.846786916255951E-001,
9.075333333333334E+008,-1.273270230740309E-003,4.692708700895309E-002,-9.116801023483276E-001,-3.598406016826630E-001,-1.273270230740309E-003,4.692708700895309E-002,-9.116801023483276E-001,-3.598406016826630E-001,
9.159000000000000E+008,-3.965723328292370E-003,4.103247448801994E-002,-9.326926469802856E-001,-3.357843458652496E-001,-3.965723328292370E-003,4.103247448801994E-002,-9.326926469802856E-001,-3.357843458652496E-001,
9.242666666666668E+008,-1.087688747793436E-002,4.081156104803085E-002,-9.228006005287170E-001,-3.143184483051300E-001,-1.087688747793436E-002,4.081156104803085E-002,-9.228006005287170E-001,-3.143184483051300E-001,
9.326333333333334E+008,-1.603537611663342E-002,4.272433370351791E-002,-9.414206147193909E-001,-3.013312816619873E-001,-1.603537611663342E-002,4.272433370351791E-002,-9.414206147193909E-001,-3.013312816619873E-001,
9.410000000000000E+008,-2.023111656308174E-002,4.680730774998665E-002,-9.525063633918762E-001,-2.633158266544342E-001,-2.023111656308174E-002,4.680730774998665E-002,-9.525063633918762E-001,-2.633158266544342E-001,
9.493666666666668E+008,-2.167842909693718E-002,5.571229755878449E-002,-9.528559446334839E-001,-2.326228618621826E-001,-2.167842909693718E-002,5.571229755878449E-002,-9.528559446334839E-001,-2.326228618621826E-001,
9.577333333333334E+008,-1.831610500812531E-002,6.533486396074295E-002,-9.620960354804993E-001,-2.190530002117157E-001,-1.831610500812531E-002,6.533486396074295E-002,-9.620960354804993E-001,-2.190530002117157E-001,
9.661000000000000E+008,-9.570005349814892E-003,7.202734798192978E-002,-9.609083533287048E-001,-1.784120053052902E-001,-9.570005349814892E-003,7.202734798192978E-002,-9.609083533287048E-001,-1.784120053052902E-001,
9.744666666666668E+008,1.223893370479345E-003,7.226606458425522E-002,-9.602331519126892E-001,-1.675216108560562E-001,1.223893370479345E-003,7.226606458425522E-002,-9.602331519126892E-001,-1.675216108560562E-001,
9.828333333333334E+008,1.025533955544233E-002,7.351356744766235E-002,-9.751203060150147E-001,-1.507726907730103E-001,1.025533955544233E-002,7.351356744766235E-002,-9.751203060150147E-001,-1.507726907730103E-001,
9.912000000000000E+008,2.047220803797245E-002,6.692201644182205E-002,-9.731940627098084E-001,-1.260511130094528E-001,2.047220803797245E-002,6.692201644182205E-002,-9.731940627098084E-001,-1.260511130094528E-001,
9.995666666666668E+008,2.402818761765957E-002,5.904155597090721E-002,-9.852315783500671E-001,-9.169594198465347E-002,2.402818761765957E-002,5.904155597090721E-002,-9.852315783500671E-001,-9.169594198465347E-002,
1.007933333333333E+009,2.738562971353531E-002,4.998128861188889E-002,-9.992415308952332E-001,-7.436329126358032E-002,2.738562971353531E-002,4.998128861188889E-002,-9.992415308952332E-001,-7.436329126358032E-002,
1.016300000000000E+009,2.084147185087204E-002,4.337685182690620E-002,-9.882165193557739E-001,-4.861494153738022E-002,2.084147185087204E-002,4.337685182690620E-002,-9.882165193557739E-001,-4.861494153738022E-002,
1.024666666666667E+009,1.293683797121048E-002,3.955069556832314E-002,-9.839364886283875E-001,-2.151932753622532E-002,1.293683797121048E-002,3.955069556832314E-002,-9.839364886283875E-001,-2.151932753622532E-002,
1.033033333333333E+009,7.725336588919163E-003,4.394957423210144E-002,-9.903870224952698E-001,2.402367768809199E-003,7.725336588919163E-003,4.394957423210144E-002,-9.903870224952698E-001,2.402367768809199E-003,
1.041400000000000E+009,9.921598248183727E-004,4.883130267262459E-002,-9.895342588424683E-001,2.687976323068142E-002,9.921598248183727E-004,4.883130267262459E-002,-9.895342588424683E-001,2.687976323068142E-002,
1.049766666666667E+009,4.052446689456701E-003,5.823940038681030E-002,-9.781209230422974E-001,6.005003675818443E-002,4.052446689456701E-003,5.823940038681030E-002,-9.781209230422974E-001,6.005003675818443E-002,
1.058133333333333E+009,8.305057883262634E-003,6.712120026350021E-002,-9.778479933738709E-001,8.335514366626740E-002,8.305057883262634E-003,6.712120026350021E-002,-9.778479933738709E-001,8.335514366626740E-002,
1.066500000000000E+009,1.964925229549408E-002,7.144154608249664E-002,-9.917627573013306E-001,1.158199161291122E-001,1.964925229549408E-002,7.144154608249664E-002,-9.917627573013306E-001,1.158199161291122E-001,
1.074866666666667E+009,3.341700881719589E-002,7.003553211688995E-002,-9.858145117759705E-001,1.372928470373154E-001,3.341700881719589E-002,7.003553211688995E-002,-9.858145117759705E-001,1.372928470373154E-001,
1.083233333333334E+009,4.224190488457680E-002,6.189074739813805E-002,-9.697564244270325E-001,1.594743430614471E-001,4.224190488457680E-002,6.189074739813805E-002,-9.697564244270325E-001,1.594743430614471E-001,
1.091600000000000E+009,4.869812354445458E-002,5.142572894692421E-002,-9.533030986785889E-001,1.780168414115906E-001,4.869812354445458E-002,5.142572894692421E-002,-9.533030986785889E-001,1.780168414115906E-001,
1.099966666666667E+009,4.793595895171166E-002,3.806492313742638E-002,-9.484477043151856E-001,2.163074910640717E-001,4.793595895171166E-002,3.806492313742638E-002,-9.484477043151856E-001,2.163074910640717E-001,
1.108333333333334E+009,3.936456516385078E-002,2.992169931530953E-002,-9.485851526260376E-001,2.243792265653610E-001,3.936456516385078E-002,2.992169931530953E-002,-9.485851526260376E-001,2.243792265653610E-001,
1.116700000000000E+009,2.868329919874668E-002,2.641447074711323E-002,-9.406566619873047E-001,2.595200836658478E-001,2.868329919874668E-002,2.641447074711323E-002,-9.406566619873047E-001,2.595200836658478E-001,
1.125066666666667E+009,1.754712499678135E-002,3.102804161608219E-002,-9.425997734069824E-001,2.748554050922394E-001,1.754712499678135E-002,3.102804161608219E-002,-9.425997734069824E-001,2.748554050922394E-001,
1.133433333333334E+009,9.068761020898819E-003,4.050375893712044E-002,-9.396104812622070E-001,3.187243640422821E-001,9.068761020898819E-003,4.050375893712044E-002,-9.396104812622070E-001,3.187243640422821E-001,
1.141800000000000E+009,7.558929268270731E-003,5.354170873761177E-002,-9.178867936134338E-001,3.320361375808716E-001,7.558929268270731E-003,5.354170873761177E-002,-9.178867936134338E-001,3.320361375808716E-001,
1.150166666666667E+009,1.689318381249905E-002,6.783092021942139E-002,-9.056207537651062E-001,3.336618244647980E-001,1.689318381249905E-002,6.783092021942139E-002,-9.056207537651062E-001,3.336618244647980E-001,
1.158533333333334E+009,3.258787840604782E-002,7.452519237995148E-002,-9.003950357437134E-001,3.750446736812592E-001,3.258787840604782E-002,7.452519237995148E-002,-9.003950357437134E-001,3.750446736812592E-001,
1.166900000000000E+009,5.179504677653313E-002,7.431748509407044E-002,-8.832374215126038E-001,3.933365046977997E-001,5.179504677653313E-002,7.431748509407044E-002,-8.832374215126038E-001,3.933365046977997E-001,
1.175266666666667E+009,6.769625097513199E-002,6.381791830062866E-002,-8.795580267906189E-001,4.228117763996124E-001,6.769625097513199E-002,6.381791830062866E-002,-8.795580267906189E-001,4.228117763996124E-001,
1.183633333333334E+009,7.983157783746719E-002,4.879010096192360E-002,-8.763749003410339E-001,4.353455305099487E-001,7.983157783746719E-002,4.879010096192360E-002,-8.763749003410339E-001,4.353455305099487E-001,
1.192000000000000E+009,7.959671318531036E-002,3.037297539412975E-002,-8.640483617782593E-001,4.562832415103912E-001,7.959671318531036E-002,3.037297539412975E-002,-8.640483617782593E-001,4.562832415103912E-001,
1.200366666666667E+009,7.013921439647675E-002,1.376659981906414E-002,-8.511649370193481E-001,4.792272448539734E-001,7.013921439647675E-002,1.376659981906414E-002,-8.511649370193481E-001,4.792272448539734E-001,
1.208733333333334E+009,5.482138320803642E-002,5.101597402244806E-003,-8.450747728347778E-001,5.223598480224609E-001,5.482138320803642E-002,5.101597402244806E-003,-8.450747728347778E-001,5.223598480224609E-001,
1.217100000000000E+009,3.868029266595841E-002,6.639535538852215E-003,-8.403477072715759E-001,5.325880646705627E-001,3.868029266595841E-002,6.639535538852215E-003,-8.403477072715759E-001,5.325880646705627E-001,
1.225466666666667E+009,2.621228620409966E-002,1.756037957966328E-002,-8.088392615318298E-001,5.553757548332214E-001,2.621228620409966E-002,1.756037957966328E-002,-8.088392615318298E-001,5.553757548332214E-001,
1.233833333333334E+009,2.164336107671261E-002,3.393587470054627E-002,-8.025006651878357E-001,5.678836703300476E-001,2.164336107671261E-002,3.393587470054627E-002,-8.025006651878357E-001,5.678836703300476E-001,
1.242200000000000E+009,2.977293543517590E-002,4.790647700428963E-002,-7.794560790061951E-001,6.010267734527588E-001,2.977293543517590E-002,4.790647700428963E-002,-7.794560790061951E-001,6.010267734527588E-001,
1.250566666666667E+009,4.279034957289696E-002,5.753180757164955E-002,-7.579669356346130E-001,6.062354445457459E-001,4.279034957289696E-002,5.753180757164955E-002,-7.579669356346130E-001,6.062354445457459E-001,
1.258933333333334E+009,6.320518255233765E-002,5.782047286629677E-002,-7.486997246742249E-001,6.272305846214294E-001,6.320518255233765E-002,5.782047286629677E-002,-7.486997246742249E-001,6.272305846214294E-001,
1.267300000000000E+009,8.264380693435669E-002,4.608543217182159E-002,-7.321074604988098E-001,6.409317255020142E-001,8.264380693435669E-002,4.608543217182159E-002,-7.321074604988098E-001,6.409317255020142E-001,
1.275666666666667E+009,9.170834720134735E-002,2.831839770078659E-002,-7.206625342369080E-001,6.490028500556946E-001,9.170834720134735E-002,2.831839770078659E-002,-7.206625342369080E-001,6.490028500556946E-001,
1.284033333333334E+009,9.404572844505310E-002,7.142410613596439E-003,-7.050336599349976E-001,6.926178336143494E-001,9.404572844505310E-002,7.142410613596439E-003,-7.050336599349976E-001,6.926178336143494E-001,
1.292400000000000E+009,8.372534066438675E-002,-1.150015462189913E-002,-6.935334205627441E-001,6.951450705528259E-001,8.372534066438675E-002,-1.150015462189913E-002,-6.935334205627441E-001,6.951450705528259E-001,
1.300766666666667E+009,6.402962654829025E-002,-1.978378370404244E-002,-6.694905757904053E-001,7.199232578277588E-001,6.402962654829025E-002,-1.978378370404244E-002,-6.694905757904053E-001,7.199232578277588E-001,
1.309133333333334E+009,4.319346323609352E-002,-1.813026890158653E-002,-6.457733511924744E-001,7.328698039054871E-001,4.319346323609352E-002,-1.813026890158653E-002,-6.457733511924744E-001,7.328698039054871E-001,
1.317500000000000E+009,2.881414815783501E-002,-6.030273158103228E-003,-6.324867606163025E-001,7.660856246948242E-001,2.881414815783501E-002,-6.030273158103228E-003,-6.324867606163025E-001,7.660856246948242E-001,
1.325866666666667E+009,2.377741597592831E-002,1.074342615902424E-002,-6.133379340171814E-001,7.778224945068359E-001,2.377741597592831E-002,1.074342615902424E-002,-6.133379340171814E-001,7.778224945068359E-001,
1.334233333333334E+009,3.159888088703156E-002,2.829757519066334E-002,-5.952390432357788E-001,7.843115925788879E-001,3.159888088703156E-002,2.829757519066334E-002,-5.952390432357788E-001,7.843115925788879E-001,
1.342600000000000E+009,4.686487838625908E-002,3.727450966835022E-002,-5.760343670845032E-001,8.014043569564819E-001,4.686487838625908E-002,3.727450966835022E-002,-5.760343670845032E-001,8.014043569564819E-001,
1.350966666666667E+009,6.661689281463623E-002,3.418684750795364E-002,-5.511940121650696E-001,8.141760230064392E-001,6.661689281463623E-002,3.418684750795364E-002,-5.511940121650696E-001,8.141760230064392E-001,
1.359333333333334E+009,8.184619247913361E-002,2.031400054693222E-002,-5.390563607215881E-001,8.124313354492188E-001,8.184619247913361E-002,2.031400054693222E-002,-5.390563607215881E-001,8.124313354492188E-001,
1.367700000000000E+009,8.776056766510010E-002,4.070230352226645E-004,-5.042238235473633E-001,8.315246105194092E-001,8.776056766510010E-002,4.070230352226645E-004,-5.042238235473633E-001,8.315246105194092E-001,
1.376066666666667E+009,8.416487276554108E-002,-2.195890434086323E-002,-4.891344010829926E-001,8.425412774085999E-001,8.416487276554108E-002,-2.195890434086323E-002,-4.891344010829926E-001,8.425412774085999E-001,
1.384433333333334E+009,6.718774884939194E-002,-3.716074675321579E-002,-4.751252233982086E-001,8.732509016990662E-001,6.718774884939194E-002,-3.716074675321579E-002,-4.751252233982086E-001,8.732509016990662E-001,
1.392800000000000E+009,4.664359241724014E-002,-3.935799747705460E-002,-4.528603851795197E-001,8.790330886840820E-001,4.664359241724014E-002,-3.935799747705460E-002,-4.528603851795197E-001,8.790330886840820E-001,
1.401166666666667E+009,2.600274421274662E-002,-3.166384249925613E-002,-4.264951944351196E-001,8.879858851432800E-001,2.600274421274662E-002,-3.166384249925613E-002,-4.264951944351196E-001,8.879858851432800E-001,
1.409533333333334E+009,1.249900739639998E-002,-1.395191904157400E-002,-3.967049121856690E-001,9.032831192016602E-001,1.249900739639998E-002,-1.395191904157400E-002,-3.967049121856690E-001,9.032831192016602E-001,
1.417900000000000E+009,1.325948350131512E-002,9.244134649634361E-003,-3.772210478782654E-001,8.985407948493958E-001,1.325948350131512E-002,9.244134649634361E-003,-3.772210478782654E-001,8.985407948493958E-001,
1.426266666666667E+009,2.346935681998730E-002,2.613962814211845E-002,-3.407941758632660E-001,9.253862500190735E-001,2.346935681998730E-002,2.613962814211845E-002,-3.407941758632660E-001,9.253862500190735E-001,
1.434633333333334E+009,4.354633390903473E-002,3.464527055621147E-002,-3.318187296390533E-001,9.191841483116150E-001,4.354633390903473E-002,3.464527055621147E-002,-3.318187296390533E-001,9.191841483116150E-001,
1.443000000000000E+009,6.382426619529724E-002,3.159421682357788E-002,-3.074219226837158E-001,9.258036017417908E-001,6.382426619529724E-002,3.159421682357788E-002,-3.074219226837158E-001,9.258036017417908E-001,
1.451366666666667E+009,7.931189984083176E-002,1.543778367340565E-002,-2.813999950885773E-001,9.279323220252991E-001,7.931189984083176E-002,1.543778367340565E-002,-2.813999950885773E-001,9.279323220252991E-001,
1.459733333333334E+009,8.613698929548264E-002,-4.982260987162590E-003,-2.558316588401794E-001,9.539541602134705E-001,8.613698929548264E-002,-4.982260987162590E-003,-2.558316588401794E-001,9.539541602134705E-001,
