% Version 1.00
%
%freq[Hz],re:Trc1_S11,im:Trc1_S11,re:Trc2_S21,im:Trc2_S21,re:Trc3_S11,im:Trc3_S11,re:Trc4_S21,im:Trc4_S21,
6.900000000000000E+008,-4.277747496962547E-002,3.522213920950890E-002,-4.970325529575348E-001,-8.556274175643921E-001,-4.277747496962547E-002,3.522213920950890E-002,-4.970325529575348E-001,-8.556274175643921E-001,
6.983666666666666E+008,-3.464438021183014E-002,3.592756018042564E-002,-5.223631858825684E-001,-8.448064327239990E-001,-3.464438021183014E-002,3.592756018042564E-002,-5.223631858825684E-001,-8.448064327239990E-001,
7.067333333333334E+008,-2.835450321435928E-002,3.156548738479614E-002,-5.451812148094177E-001,-8.192888498306274E-001,-2.835450321435928E-002,3.156548738479614E-002,-5.451812148094177E-001,-8.192888498306274E-001,
7.151000000000000E+008,-2.761485986411572E-002,2.379413321614265E-002,-5.797266364097595E-001,-8.167690634727478E-001,-2.761485986411572E-002,2.379413321614265E-002,-5.797266364097595E-001,-8.167690634727478E-001,
7.234666666666666E+008,-2.923955954611301E-002,1.831068843603134E-002,-5.931812524795532E-001,-8.013416528701782E-001,-2.923955954611301E-002,1.831068843603134E-002,-5.931812524795532E-001,-8.013416528701782E-001,
7.318333333333334E+008,-3.649026528000832E-002,1.553387008607388E-002,-6.105005741119385E-001,-7.843071818351746E-001,-3.649026528000832E-002,1.553387008607388E-002,-6.105005741119385E-001,-7.843071818351746E-001,
7.402000000000000E+008,-4.284713789820671E-002,1.690957695245743E-002,-6.212491393089294E-001,-7.595996260643005E-001,-4.284713789820671E-002,1.690957695245743E-002,-6.212491393089294E-001,-7.595996260643005E-001,
7.485666666666666E+008,-4.843702912330627E-002,2.337034232914448E-002,-6.514358520507813E-001,-7.467217445373535E-001,-4.843702912330627E-002,2.337034232914448E-002,-6.514358520507813E-001,-7.467217445373535E-001,
7.569333333333334E+008,-5.263552442193031E-002,3.283272311091423E-002,-6.699302196502686E-001,-7.333721518516541E-001,-5.263552442193031E-002,3.283272311091423E-002,-6.699302196502686E-001,-7.333721518516541E-001,
7.653000000000000E+008,-4.758651927113533E-002,4.170856624841690E-002,-6.774459481239319E-001,-7.142747640609741E-001,-4.758651927113533E-002,4.170856624841690E-002,-6.774459481239319E-001,-7.142747640609741E-001,
7.736666666666666E+008,-4.145612940192223E-002,4.848746210336685E-002,-6.903378367424011E-001,-7.106515169143677E-001,-4.145612940192223E-002,4.848746210336685E-002,-6.903378367424011E-001,-7.106515169143677E-001,
7.820333333333334E+008,-3.283575177192688E-002,5.270046740770340E-002,-7.241493463516235E-001,-6.821805834770203E-001,-3.283575177192688E-002,5.270046740770340E-002,-7.241493463516235E-001,-6.821805834770203E-001,
7.904000000000000E+008,-2.279000915586948E-002,5.172774940729141E-002,-7.332702875137329E-001,-6.634805798530579E-001,-2.279000915586948E-002,5.172774940729141E-002,-7.332702875137329E-001,-6.634805798530579E-001,
7.987666666666666E+008,-1.830420084297657E-002,4.640879482030869E-002,-7.384759783744812E-001,-6.478955745697022E-001,-1.830420084297657E-002,4.640879482030869E-002,-7.384759783744812E-001,-6.478955745697022E-001,
8.071333333333334E+008,-1.600294746458530E-002,3.980487585067749E-002,-7.650022506713867E-001,-6.161832213401794E-001,-1.600294746458530E-002,3.980487585067749E-002,-7.650022506713867E-001,-6.161832213401794E-001,
8.155000000000000E+008,-1.895457133650780E-002,3.253786638379097E-002,-7.915915250778198E-001,-6.050919294357300E-001,-1.895457133650780E-002,3.253786638379097E-002,-7.915915250778198E-001,-6.050919294357300E-001,
8.238666666666666E+008,-2.564144507050514E-002,3.023872524499893E-002,-7.975990772247315E-001,-5.816633105278015E-001,-2.564144507050514E-002,3.023872524499893E-002,-7.975990772247315E-001,-5.816633105278015E-001,
8.322333333333334E+008,-3.146228939294815E-002,3.131433576345444E-002,-8.068946599960327E-001,-5.640856027603149E-001,-3.146228939294815E-002,3.131433576345444E-002,-8.068946599960327E-001,-5.640856027603149E-001,
8.406000000000000E+008,-3.640499338507652E-002,3.434897214174271E-002,-8.191124796867371E-001,-5.418014526367188E-001,-3.640499338507652E-002,3.434897214174271E-002,-8.191124796867371E-001,-5.418014526367188E-001,
8.489666666666668E+008,-3.830005973577499E-002,4.523522779345512E-002,-8.311239480972290E-001,-5.124759674072266E-001,-3.830005973577499E-002,4.523522779345512E-002,-8.311239480972290E-001,-5.124759674072266E-001,
8.573333333333334E+008,-3.641686215996742E-002,5.293690785765648E-002,-8.332805633544922E-001,-4.822936654090881E-001,-3.641686215996742E-002,5.293690785765648E-002,-8.332805633544922E-001,-4.822936654090881E-001,
8.657000000000000E+008,-3.120671957731247E-002,6.060112267732620E-002,-8.609470725059509E-001,-4.868325889110565E-001,-3.120671957731247E-002,6.060112267732620E-002,-8.609470725059509E-001,-4.868325889110565E-001,
8.740666666666668E+008,-2.209284715354443E-002,6.559192389249802E-002,-8.669676184654236E-001,-4.620997607707977E-001,-2.209284715354443E-002,6.559192389249802E-002,-8.669676184654236E-001,-4.620997607707977E-001,
8.824333333333334E+008,-1.380581688135862E-002,6.695639342069626E-002,-8.855298757553101E-001,-4.376797676086426E-001,-1.380581688135862E-002,6.695639342069626E-002,-8.855298757553101E-001,-4.376797676086426E-001,
8.908000000000000E+008,-5.627654958516359E-003,6.326768547296524E-002,-8.991655111312866E-001,-4.205928444862366E-001,-5.627654958516359E-003,6.326768547296524E-002,-8.991655111312866E-001,-4.205928444862366E-001,
8.991666666666668E+008,-2.280235348735005E-004,5.717109888792038E-002,-8.993219137191773E-001,-3.938111066818237E-001,-2.280235348735005E-004,5.717109888792038E-002,-8.993219137191773E-001,-3.938111066818237E-001,
9.075333333333334E+008,4.918932609143667E-005,4.937718063592911E-002,-9.137252569198608E-001,-3.686654865741730E-001,4.918932609143667E-005,4.937718063592911E-002,-9.137252569198608E-001,-3.686654865741730E-001,
9.159000000000000E+008,-2.730163978412747E-003,4.350306093692780E-002,-9.350942373275757E-001,-3.439154922962189E-001,-2.730163978412747E-003,4.350306093692780E-002,-9.350942373275757E-001,-3.439154922962189E-001,
9.242666666666668E+008,-9.716738015413284E-003,4.349625110626221E-002,-9.266037940979004E-001,-3.222494125366211E-001,-9.716738015413284E-003,4.349625110626221E-002,-9.266037940979004E-001,-3.222494125366211E-001,
9.326333333333334E+008,-1.496590953320265E-002,4.551460593938828E-002,-9.428451061248779E-001,-3.081953227519989E-001,-1.496590953320265E-002,4.551460593938828E-002,-9.428451061248779E-001,-3.081953227519989E-001,
9.410000000000000E+008,-1.920972578227520E-002,4.964040219783783E-002,-9.532609581947327E-001,-2.724185883998871E-001,-1.920972578227520E-002,4.964040219783783E-002,-9.532609581947327E-001,-2.724185883998871E-001,
9.493666666666668E+008,-2.084450609982014E-002,5.864000320434570E-002,-9.580792188644409E-001,-2.419488281011581E-001,-2.084450609982014E-002,5.864000320434570E-002,-9.580792188644409E-001,-2.419488281011581E-001,
9.577333333333334E+008,-1.727257668972015E-002,6.809489428997040E-002,-9.644425511360169E-001,-2.286711335182190E-001,-1.727257668972015E-002,6.809489428997040E-002,-9.644425511360169E-001,-2.286711335182190E-001,
9.661000000000000E+008,-8.507451042532921E-003,7.449492812156677E-002,-9.659211039543152E-001,-1.866760849952698E-001,-8.507451042532921E-003,7.449492812156677E-002,-9.659211039543152E-001,-1.866760849952698E-001,
9.744666666666668E+008,2.145168837159872E-003,7.456782460212708E-002,-9.637896418571472E-001,-1.759144216775894E-001,2.145168837159872E-003,7.456782460212708E-002,-9.637896418571472E-001,-1.759144216775894E-001,
9.828333333333334E+008,1.124152634292841E-002,7.532239705324173E-002,-9.792024493217468E-001,-1.562677323818207E-001,1.124152634292841E-002,7.532239705324173E-002,-9.792024493217468E-001,-1.562677323818207E-001,
9.912000000000000E+008,2.161128073930740E-002,6.867642700672150E-002,-9.766573905944824E-001,-1.341594755649567E-001,2.161128073930740E-002,6.867642700672150E-002,-9.766573905944824E-001,-1.341594755649567E-001,
9.995666666666668E+008,2.522108145058155E-002,6.079894304275513E-002,-9.892176389694214E-001,-9.742330759763718E-002,2.522108145058155E-002,6.079894304275513E-002,-9.892176389694214E-001,-9.742330759763718E-002,
1.007933333333333E+009,2.859128266572952E-002,5.132982879877091E-002,-1.002583861351013E+000,-7.977936416864395E-002,2.859128266572952E-002,5.132982879877091E-002,-1.002583861351013E+000,-7.977936416864395E-002,
1.016300000000000E+009,2.234641090035439E-002,4.544456303119659E-002,-9.889381527900696E-001,-5.378517881035805E-002,2.234641090035439E-002,4.544456303119659E-002,-9.889381527900696E-001,-5.378517881035805E-002,
1.024666666666667E+009,1.460566837340593E-002,4.171150550246239E-002,-9.847548604011536E-001,-2.787097543478012E-002,1.460566837340593E-002,4.171150550246239E-002,-9.847548604011536E-001,-2.787097543478012E-002,
1.033033333333333E+009,9.512377902865410E-003,4.631708189845085E-002,-9.915922880172730E-001,-1.393900718539953E-003,9.512377902865410E-003,4.631708189845085E-002,-9.915922880172730E-001,-1.393900718539953E-003,
1.041400000000000E+009,2.756911097094417E-003,5.112181603908539E-002,-9.911611080169678E-001,1.925048232078552E-002,2.756911097094417E-003,5.112181603908539E-002,-9.911611080169678E-001,1.925048232078552E-002,
1.049766666666667E+009,5.686171352863312E-003,6.036520749330521E-002,-9.773691892623901E-001,5.484331399202347E-002,5.686171352863312E-003,6.036520749330521E-002,-9.773691892623901E-001,5.484331399202347E-002,
1.058133333333333E+009,9.842904284596443E-003,6.902005523443222E-002,-9.793403744697571E-001,7.678068429231644E-002,9.842904284596443E-003,6.902005523443222E-002,-9.793403744697571E-001,7.678068429231644E-002,
1.066500000000000E+009,2.090535312891007E-002,7.283952087163925E-002,-9.940192699432373E-001,1.107830032706261E-001,2.090535312891007E-002,7.283952087163925E-002,-9.940192699432373E-001,1.107830032706261E-001,
1.074866666666667E+009,3.417925164103508E-002,7.126650959253311E-002,-9.880034923553467E-001,1.306659877300263E-001,3.417925164103508E-002,7.126650959253311E-002,-9.880034923553467E-001,1.306659877300263E-001,
1.083233333333334E+009,4.267615452408791E-002,6.296703964471817E-002,-9.716052412986755E-001,1.511694937944412E-001,4.267615452408791E-002,6.296703964471817E-002,-9.716052412986755E-001,1.511694937944412E-001,
1.091600000000000E+009,4.902439191937447E-002,5.228912085294724E-002,-9.543487429618835E-001,1.709322333335877E-001,4.902439191937447E-002,5.228912085294724E-002,-9.543487429618835E-001,1.709322333335877E-001,
1.099966666666667E+009,4.820492118597031E-002,3.887444734573364E-002,-9.496533274650574E-001,2.088471055030823E-001,4.820492118597031E-002,3.887444734573364E-002,-9.496533274650574E-001,2.088471055030823E-001,
1.108333333333334E+009,4.029044136404991E-002,3.098946437239647E-002,-9.499576687812805E-001,2.167239338159561E-001,4.029044136404991E-002,3.098946437239647E-002,-9.499576687812805E-001,2.167239338159561E-001,
1.116700000000000E+009,3.004343062639237E-002,2.769411727786064E-002,-9.430869817733765E-001,2.500917613506317E-001,3.004343062639237E-002,2.769411727786064E-002,-9.430869817733765E-001,2.500917613506317E-001,
1.125066666666667E+009,1.900076679885387E-002,3.212924674153328E-002,-9.440683722496033E-001,2.666085362434387E-001,1.900076679885387E-002,3.212924674153328E-002,-9.440683722496033E-001,2.666085362434387E-001,
1.133433333333334E+009,1.109600253403187E-002,4.171313345432282E-002,-9.419587850570679E-001,3.114400207996368E-001,1.109600253403187E-002,4.171313345432282E-002,-9.419587850570679E-001,3.114400207996368E-001,
1.141800000000000E+009,9.529377333819866E-003,5.481463670730591E-002,-9.190244674682617E-001,3.259882330894470E-001,9.529377333819866E-003,5.481463670730591E-002,-9.190244674682617E-001,3.259882330894470E-001,
1.150166666666667E+009,1.803129352629185E-002,6.881764531135559E-002,-9.107936024665833E-001,3.269856870174408E-001,1.803129352629185E-002,6.881764531135559E-002,-9.107936024665833E-001,3.269856870174408E-001,
1.158533333333334E+009,3.338339552283287E-002,7.556289434432983E-002,-9.037150740623474E-001,3.676397800445557E-001,3.338339552283287E-002,7.556289434432983E-002,-9.037150740623474E-001,3.676397800445557E-001,
1.166900000000000E+009,5.201254785060883E-002,7.541022449731827E-002,-8.871185779571533E-001,3.876022100448608E-001,5.201254785060883E-002,7.541022449731827E-002,-8.871185779571533E-001,3.876022100448608E-001,
1.175266666666667E+009,6.756306439638138E-002,6.463479250669479E-002,-8.817080855369568E-001,4.164579808712006E-001,6.756306439638138E-002,6.463479250669479E-002,-8.817080855369568E-001,4.164579808712006E-001,
1.183633333333334E+009,7.928306609392166E-002,4.990896210074425E-002,-8.802015185356140E-001,4.286587238311768E-001,7.928306609392166E-002,4.990896210074425E-002,-8.802015185356140E-001,4.286587238311768E-001,
1.192000000000000E+009,7.933741807937622E-002,3.120386041700840E-002,-8.674661517143250E-001,4.513655602931976E-001,7.933741807937622E-002,3.120386041700840E-002,-8.674661517143250E-001,4.513655602931976E-001,
1.200366666666667E+009,7.027884572744370E-002,1.476636342704296E-002,-8.550047874450684E-001,4.721924066543579E-001,7.027884572744370E-002,1.476636342704296E-002,-8.550047874450684E-001,4.721924066543579E-001,
1.208733333333334E+009,5.578121542930603E-002,5.910634063184261E-003,-8.486329317092896E-001,5.138406157493591E-001,5.578121542930603E-002,5.910634063184261E-003,-8.486329317092896E-001,5.138406157493591E-001,
1.217100000000000E+009,4.004649445414543E-002,7.017674855887890E-003,-8.446792364120483E-001,5.234258174896240E-001,4.004649445414543E-002,7.017674855887890E-003,-8.446792364120483E-001,5.234258174896240E-001,
1.225466666666667E+009,2.766681648790836E-002,1.753980107605457E-002,-8.128423094749451E-001,5.478395819664002E-001,2.766681648790836E-002,1.753980107605457E-002,-8.128423094749451E-001,5.478395819664002E-001,
1.233833333333334E+009,2.291811257600784E-002,3.386138752102852E-002,-8.082308769226074E-001,5.591158866882324E-001,2.291811257600784E-002,3.386138752102852E-002,-8.082308769226074E-001,5.591158866882324E-001,
1.242200000000000E+009,3.069837018847466E-002,4.802924767136574E-002,-7.836163640022278E-001,5.927072167396545E-001,3.069837018847466E-002,4.802924767136574E-002,-7.836163640022278E-001,5.927072167396545E-001,
1.250566666666667E+009,4.314482212066650E-002,5.797005444765091E-002,-7.622983455657959E-001,5.988370180130005E-001,4.314482212066650E-002,5.797005444765091E-002,-7.622983455657959E-001,5.988370180130005E-001,
1.258933333333334E+009,6.306642293930054E-002,5.816695839166641E-002,-7.566758394241333E-001,6.208597421646118E-001,6.306642293930054E-002,5.816695839166641E-002,-7.566758394241333E-001,6.208597421646118E-001,
1.267300000000000E+009,8.201239258050919E-002,4.744372144341469E-002,-7.382590770721436E-001,6.352528333663940E-001,8.201239258050919E-002,4.744372144341469E-002,-7.382590770721436E-001,6.352528333663940E-001,
1.275666666666667E+009,9.092757105827332E-002,2.948729135096073E-002,-7.257187962532044E-001,6.433586478233337E-001,9.092757105827332E-002,2.948729135096073E-002,-7.257187962532044E-001,6.433586478233337E-001,
1.284033333333334E+009,9.312152862548828E-002,8.404823951423168E-003,-7.095112204551697E-001,6.855323910713196E-001,9.312152862548828E-002,8.404823951423168E-003,-7.095112204551697E-001,6.855323910713196E-001,
1.292400000000000E+009,8.311225473880768E-002,-1.049235370010138E-002,-6.975268125534058E-001,6.887813806533814E-001,8.311225473880768E-002,-1.049235370010138E-002,-6.975268125534058E-001,6.887813806533814E-001,
1.300766666666667E+009,6.409244239330292E-002,-1.930826716125011E-002,-6.754840016365051E-001,7.127281427383423E-001,6.409244239330292E-002,-1.930826716125011E-002,-6.754840016365051E-001,7.127281427383423E-001,
1.309133333333334E+009,4.401704296469688E-002,-1.821308024227619E-002,-6.512060165405273E-001,7.272032499313355E-001,4.401704296469688E-002,-1.821308024227619E-002,-6.512060165405273E-001,7.272032499313355E-001,
1.317500000000000E+009,2.943875268101692E-002,-6.585456896573305E-003,-6.386623382568359E-001,7.576313614845276E-001,2.943875268101692E-002,-6.585456896573305E-003,-6.386623382568359E-001,7.576313614845276E-001,
1.325866666666667E+009,2.434878610074520E-002,1.021822448819876E-002,-6.196156144142151E-001,7.727998495101929E-001,2.434878610074520E-002,1.021822448819876E-002,-6.196156144142151E-001,7.727998495101929E-001,
1.334233333333334E+009,3.187078237533569E-002,2.793349511921406E-002,-6.012433767318726E-001,7.788010835647583E-001,3.187078237533569E-002,2.793349511921406E-002,-6.012433767318726E-001,7.788010835647583E-001,
1.342600000000000E+009,4.675861075520515E-002,3.717275336384773E-002,-5.839483141899109E-001,7.961492538452148E-001,4.675861075520515E-002,3.717275336384773E-002,-5.839483141899109E-001,7.961492538452148E-001,
1.350966666666667E+009,6.633443385362625E-002,3.467619046568871E-002,-5.577349662780762E-001,8.086810111999512E-001,6.633443385362625E-002,3.467619046568871E-002,-5.577349662780762E-001,8.086810111999512E-001,
1.359333333333334E+009,8.094203472137451E-002,2.138295024633408E-002,-5.444971919059753E-001,8.077633380889893E-001,8.094203472137451E-002,2.138295024633408E-002,-5.444971919059753E-001,8.077633380889893E-001,
1.367700000000000E+009,8.675394207239151E-002,1.722208573482931E-003,-5.111038684844971E-001,8.270779848098755E-001,8.675394207239151E-002,1.722208573482931E-003,-5.111038684844971E-001,8.270779848098755E-001,
1.376066666666667E+009,8.296547085046768E-002,-2.045994997024536E-002,-4.958197474479675E-001,8.364135026931763E-001,8.296547085046768E-002,-2.045994997024536E-002,-4.958197474479675E-001,8.364135026931763E-001,
1.384433333333334E+009,6.615259498357773E-002,-3.613153100013733E-002,-4.806469082832336E-001,8.667582273483276E-001,6.615259498357773E-002,-3.613153100013733E-002,-4.806469082832336E-001,8.667582273483276E-001,
1.392800000000000E+009,4.576565325260162E-002,-3.909562155604363E-002,-4.600024521350861E-001,8.750681877136231E-001,4.576565325260162E-002,-3.909562155604363E-002,-4.600024521350861E-001,8.750681877136231E-001,
1.401166666666667E+009,2.539679221808910E-002,-3.233341500163078E-002,-4.332850575447083E-001,8.821750879287720E-001,2.539679221808910E-002,-3.233341500163078E-002,-4.332850575447083E-001,8.821750879287720E-001,
1.409533333333334E+009,1.178113836795092E-002,-1.515880785882473E-002,-4.046450555324554E-001,8.966552019119263E-001,1.178113836795092E-002,-1.515880785882473E-002,-4.046450555324554E-001,8.966552019119263E-001,
1.417900000000000E+009,1.199732627719641E-002,7.838342338800430E-003,-3.855747580528259E-001,8.927673697471619E-001,1.199732627719641E-002,7.838342338800430E-003,-3.855747580528259E-001,8.927673697471619E-001,
1.426266666666667E+009,2.215392701327801E-002,2.504917420446873E-002,-3.493413031101227E-001,9.194412231445313E-001,2.215392701327801E-002,2.504917420446873E-002,-3.493413031101227E-001,9.194412231445313E-001,
1.434633333333334E+009,4.213925823569298E-002,3.405907005071640E-002,-3.398627936840057E-001,9.138768315315247E-001,4.213925823569298E-002,3.405907005071640E-002,-3.398627936840057E-001,9.138768315315247E-001,
1.443000000000000E+009,6.235378608107567E-002,3.196943551301956E-002,-3.153658211231232E-001,9.218531847000122E-001,6.235378608107567E-002,3.196943551301956E-002,-3.153658211231232E-001,9.218531847000122E-001,
1.451366666666667E+009,7.830178737640381E-002,1.690967753529549E-002,-2.894288301467896E-001,9.224711060523987E-001,7.830178737640381E-002,1.690967753529549E-002,-2.894288301467896E-001,9.224711060523987E-001,
1.459733333333334E+009,8.505167812108994E-002,-3.128912765532732E-003,-2.642112672328949E-001,9.493229389190674E-001,8.505167812108994E-002,-3.128912765532732E-003,-2.642112672328949E-001,9.493229389190674E-001,
