% Version 1.00
%
%freq[Hz],re:Trc1_S11,im:Trc1_S11,re:Trc2_S21,im:Trc2_S21,re:Trc3_S11,im:Trc3_S11,re:Trc4_S21,im:Trc4_S21,
6.900000000000000E+008,-1.605987921357155E-002,1.866295002400875E-002,-4.700877964496613E-001,-8.774470686912537E-001,-1.605987921357155E-002,1.866295002400875E-002,-4.700877964496613E-001,-8.774470686912537E-001,
6.983666666666666E+008,-7.541463710367680E-003,1.826561428606510E-002,-4.957236945629120E-001,-8.652649521827698E-001,-7.541463710367680E-003,1.826561428606510E-002,-4.957236945629120E-001,-8.652649521827698E-001,
7.067333333333334E+008,-1.083687297068536E-003,1.292315684258938E-002,-5.222406983375549E-001,-8.406344056129456E-001,-1.083687297068536E-003,1.292315684258938E-002,-5.222406983375549E-001,-8.406344056129456E-001,
7.151000000000000E+008,-2.129909116774797E-004,4.360434599220753E-003,-5.534072518348694E-001,-8.394844532012940E-001,-2.129909116774797E-004,4.360434599220753E-003,-5.534072518348694E-001,-8.394844532012940E-001,
7.234666666666666E+008,-1.656809588894248E-003,-2.125719329342246E-003,-5.722966790199280E-001,-8.281995058059692E-001,-1.656809588894248E-003,-2.125719329342246E-003,-5.722966790199280E-001,-8.281995058059692E-001,
7.318333333333334E+008,-9.073396213352680E-003,-5.546784028410912E-003,-5.873724818229675E-001,-8.085900545120239E-001,-9.073396213352680E-003,-5.546784028410912E-003,-5.873724818229675E-001,-8.085900545120239E-001,
7.402000000000000E+008,-1.623419299721718E-002,-5.125520750880241E-003,-6.007959842681885E-001,-7.854667901992798E-001,-1.623419299721718E-002,-5.125520750880241E-003,-6.007959842681885E-001,-7.854667901992798E-001,
7.485666666666666E+008,-2.207810059189796E-002,3.866675251629204E-004,-6.276699900627136E-001,-7.738747000694275E-001,-2.207810059189796E-002,3.866675251629204E-004,-6.276699900627136E-001,-7.738747000694275E-001,
7.569333333333334E+008,-2.726876549422741E-002,8.466932922601700E-003,-6.482675671577454E-001,-7.572856545448303E-001,-2.726876549422741E-002,8.466932922601700E-003,-6.482675671577454E-001,-7.572856545448303E-001,
7.653000000000000E+008,-2.282437868416309E-002,1.684373803436756E-002,-6.526804566383362E-001,-7.408003807067871E-001,-2.282437868416309E-002,1.684373803436756E-002,-6.526804566383362E-001,-7.408003807067871E-001,
7.736666666666666E+008,-1.739603281021118E-002,2.200086042284966E-002,-6.721724867820740E-001,-7.431552410125732E-001,-1.739603281021118E-002,2.200086042284966E-002,-6.721724867820740E-001,-7.431552410125732E-001,
7.820333333333334E+008,-9.732779115438461E-003,2.562393806874752E-002,-7.037892937660217E-001,-7.122488617897034E-001,-9.732779115438461E-003,2.562393806874752E-002,-7.037892937660217E-001,-7.122488617897034E-001,
7.904000000000000E+008,1.122504399972968E-004,2.375622279942036E-002,-7.128430008888245E-001,-6.940498352050781E-001,1.122504399972968E-004,2.375622279942036E-002,-7.128430008888245E-001,-6.940498352050781E-001,
7.987666666666666E+008,3.992407582700253E-003,1.742332614958286E-002,-7.193326950073242E-001,-6.784830689430237E-001,3.992407582700253E-003,1.742332614958286E-002,-7.193326950073242E-001,-6.784830689430237E-001,
8.071333333333334E+008,7.153229787945747E-003,1.027752086520195E-002,-7.452778816223145E-001,-6.468231081962585E-001,7.153229787945747E-003,1.027752086520195E-002,-7.452778816223145E-001,-6.468231081962585E-001,
8.155000000000000E+008,3.859281307086349E-003,2.464279066771269E-003,-7.736368775367737E-001,-6.391104459762573E-001,3.859281307086349E-003,2.464279066771269E-003,-7.736368775367737E-001,-6.391104459762573E-001,
8.238666666666666E+008,-2.508944133296609E-003,-1.301817479543388E-003,-7.792431712150574E-001,-6.129024028778076E-001,-2.508944133296609E-003,-1.301817479543388E-003,-7.792431712150574E-001,-6.129024028778076E-001,
8.322333333333334E+008,-8.995522744953632E-003,-1.546063111163676E-003,-7.900784015655518E-001,-5.981192588806152E-001,-8.995522744953632E-003,-1.546063111163676E-003,-7.900784015655518E-001,-5.981192588806152E-001,
8.406000000000000E+008,-1.498164143413305E-002,8.523680735379458E-004,-8.015696406364441E-001,-5.779339075088501E-001,-1.498164143413305E-002,8.523680735379458E-004,-8.015696406364441E-001,-5.779339075088501E-001,
8.489666666666668E+008,-1.762979477643967E-002,9.948322549462318E-003,-8.159524202346802E-001,-5.484003424644470E-001,-1.762979477643967E-002,9.948322549462318E-003,-8.159524202346802E-001,-5.484003424644470E-001,
8.573333333333334E+008,-1.776554621756077E-002,1.720841228961945E-002,-8.188015222549439E-001,-5.189867019653320E-001,-1.776554621756077E-002,1.720841228961945E-002,-8.188015222549439E-001,-5.189867019653320E-001,
8.657000000000000E+008,-1.438585575670004E-002,2.471491508185864E-002,-8.480916023254395E-001,-5.245397686958313E-001,-1.438585575670004E-002,2.471491508185864E-002,-8.480916023254395E-001,-5.245397686958313E-001,
8.740666666666668E+008,-6.771375425159931E-003,2.945290133357048E-002,-8.564016222953796E-001,-5.007947087287903E-001,-6.771375425159931E-003,2.945290133357048E-002,-8.564016222953796E-001,-5.007947087287903E-001,
8.824333333333334E+008,4.950572038069367E-004,3.022423945367336E-002,-8.740825057029724E-001,-4.755944311618805E-001,4.950572038069367E-004,3.022423945367336E-002,-8.740825057029724E-001,-4.755944311618805E-001,
8.908000000000000E+008,7.798391859978437E-003,2.590495720505714E-002,-8.896258473396301E-001,-4.584403038024902E-001,7.798391859978437E-003,2.590495720505714E-002,-8.896258473396301E-001,-4.584403038024902E-001,
8.991666666666668E+008,1.329507958143950E-002,1.955132931470871E-002,-8.920546770095825E-001,-4.317563772201538E-001,1.329507958143950E-002,1.955132931470871E-002,-8.920546770095825E-001,-4.317563772201538E-001,
9.075333333333334E+008,1.301818899810314E-002,1.047134585678577E-002,-8.999916911125183E-001,-4.063601195812225E-001,1.301818899810314E-002,1.047134585678577E-002,-8.999916911125183E-001,-4.063601195812225E-001,
9.159000000000000E+008,1.141240168362856E-002,3.681848524138331E-003,-9.257282018661499E-001,-3.826697170734406E-001,1.141240168362856E-002,3.681848524138331E-003,-9.257282018661499E-001,-3.826697170734406E-001,
9.242666666666668E+008,3.777481848374009E-003,2.248175209388137E-003,-9.191145300865173E-001,-3.613689541816711E-001,3.777481848374009E-003,2.248175209388137E-003,-9.191145300865173E-001,-3.613689541816711E-001,
9.326333333333334E+008,-1.973121659830213E-003,3.036448266357184E-003,-9.371666312217712E-001,-3.483464419841766E-001,-1.973121659830213E-003,3.036448266357184E-003,-9.371666312217712E-001,-3.483464419841766E-001,
9.410000000000000E+008,-7.600287906825542E-003,5.989865865558386E-003,-9.472559690475464E-001,-3.170353174209595E-001,-7.600287906825542E-003,5.989865865558386E-003,-9.472559690475464E-001,-3.170353174209595E-001,
9.493666666666668E+008,-1.168263424187899E-002,1.450635679066181E-002,-9.520009160041809E-001,-2.879894971847534E-001,-1.168263424187899E-002,1.450635679066181E-002,-9.520009160041809E-001,-2.879894971847534E-001,
9.577333333333334E+008,-1.073448173701763E-002,2.339779026806355E-002,-9.604521989822388E-001,-2.714413404464722E-001,-1.073448173701763E-002,2.339779026806355E-002,-9.604521989822388E-001,-2.714413404464722E-001,
9.661000000000000E+008,-3.671829123049974E-003,3.011620976030827E-002,-9.659160375595093E-001,-2.304483354091644E-001,-3.671829123049974E-003,3.011620976030827E-002,-9.659160375595093E-001,-2.304483354091644E-001,
9.744666666666668E+008,5.070084240287542E-003,3.145958110690117E-002,-9.643074870109558E-001,-2.180727720260620E-001,5.070084240287542E-003,3.145958110690117E-002,-9.643074870109558E-001,-2.180727720260620E-001,
9.828333333333334E+008,1.299545355141163E-002,3.236081078648567E-002,-9.768846631050110E-001,-2.007491886615753E-001,1.299545355141163E-002,3.236081078648567E-002,-9.768846631050110E-001,-2.007491886615753E-001,
9.912000000000000E+008,2.314794808626175E-002,2.619375102221966E-002,-9.778037667274475E-001,-1.761297583580017E-001,2.314794808626175E-002,2.619375102221966E-002,-9.778037667274475E-001,-1.761297583580017E-001,
9.995666666666668E+008,2.686886675655842E-002,1.755291037261486E-002,-9.923797249794006E-001,-1.400120556354523E-001,2.686886675655842E-002,1.755291037261486E-002,-9.923797249794006E-001,-1.400120556354523E-001,
1.007933333333333E+009,2.947183325886726E-002,6.893158424645662E-003,-1.002691388130188E+000,-1.243038326501846E-001,2.947183325886726E-002,6.893158424645662E-003,-1.002691388130188E+000,-1.243038326501846E-001,
1.016300000000000E+009,2.318486943840981E-002,-1.137100116466172E-004,-9.948043227195740E-001,-1.011587679386139E-001,2.318486943840981E-002,-1.137100116466172E-004,-9.948043227195740E-001,-1.011587679386139E-001,
1.024666666666667E+009,1.536560151726008E-002,-5.561430007219315E-003,-9.918226003646851E-001,-7.501983642578125E-002,1.536560151726008E-002,-5.561430007219315E-003,-9.918226003646851E-001,-7.501983642578125E-002,
1.033033333333333E+009,8.173080161213875E-003,-2.089218934997916E-003,-1.001802444458008E+000,-5.070760473608971E-002,8.173080161213875E-003,-2.089218934997916E-003,-1.001802444458008E+000,-5.070760473608971E-002,
1.041400000000000E+009,-2.968194312416017E-004,1.950802397914231E-003,-1.006442785263062E+000,-2.774217538535595E-002,-2.968194312416017E-004,1.950802397914231E-003,-1.006442785263062E+000,-2.774217538535595E-002,
1.049766666666667E+009,5.270544206723571E-004,1.187438052147627E-002,-9.892809987068176E-001,5.363027099519968E-003,5.270544206723571E-004,1.187438052147627E-002,-9.892809987068176E-001,5.363027099519968E-003,
1.058133333333333E+009,1.841108780354261E-003,2.109162323176861E-002,-9.953817129135132E-001,2.960620261728764E-002,1.841108780354261E-003,2.109162323176861E-002,-9.953817129135132E-001,2.960620261728764E-002,
1.066500000000000E+009,1.175290625542402E-002,2.629749104380608E-002,-1.010818600654602E+000,6.570132076740265E-002,1.175290625542402E-002,2.629749104380608E-002,-1.010818600654602E+000,6.570132076740265E-002,
1.074866666666667E+009,2.340878173708916E-002,2.618921175599098E-002,-1.008527874946594E+000,8.486919105052948E-002,2.340878173708916E-002,2.618921175599098E-002,-1.008527874946594E+000,8.486919105052948E-002,
1.083233333333334E+009,3.109510801732540E-002,1.845110394060612E-002,-9.893301725387573E-001,1.063572838902473E-001,3.109510801732540E-002,1.845110394060612E-002,-9.893301725387573E-001,1.063572838902473E-001,
1.091600000000000E+009,3.736611828207970E-002,7.627031765878201E-003,-9.739915728569031E-001,1.267576515674591E-001,3.736611828207970E-002,7.627031765878201E-003,-9.739915728569031E-001,1.267576515674591E-001,
1.099966666666667E+009,3.670896589756012E-002,-6.476542446762323E-003,-9.691245555877686E-001,1.631288379430771E-001,3.670896589756012E-002,-6.476542446762323E-003,-9.691245555877686E-001,1.631288379430771E-001,
1.108333333333334E+009,2.842515334486961E-002,-1.634355820715427E-002,-9.676546454429627E-001,1.727411448955536E-001,2.842515334486961E-002,-1.634355820715427E-002,-9.676546454429627E-001,1.727411448955536E-001,
1.116700000000000E+009,1.717797853052616E-002,-2.149858884513378E-002,-9.632524251937866E-001,2.059211432933807E-001,1.717797853052616E-002,-2.149858884513378E-002,-9.632524251937866E-001,2.059211432933807E-001,
1.125066666666667E+009,3.797061275690794E-003,-1.888141222298145E-002,-9.651694893836975E-001,2.187622785568237E-001,3.797061275690794E-003,-1.888141222298145E-002,-9.651694893836975E-001,2.187622785568237E-001,
1.133433333333334E+009,-6.908368784934282E-003,-9.510799311101437E-003,-9.659709334373474E-001,2.631820142269135E-001,-6.908368784934282E-003,-9.510799311101437E-003,-9.659709334373474E-001,2.631820142269135E-001,
1.141800000000000E+009,-1.170971151441336E-002,4.017201717942953E-003,-9.502769708633423E-001,2.803895771503449E-001,-1.170971151441336E-002,4.017201717942953E-003,-9.502769708633423E-001,2.803895771503449E-001,
1.150166666666667E+009,-5.289261694997549E-003,1.990981213748455E-002,-9.412441849708557E-001,2.813815176486969E-001,-5.289261694997549E-003,1.990981213748455E-002,-9.412441849708557E-001,2.813815176486969E-001,
1.158533333333334E+009,7.719244807958603E-003,2.890873141586781E-002,-9.357833266258240E-001,3.230024278163910E-001,7.719244807958603E-003,2.890873141586781E-002,-9.357833266258240E-001,3.230024278163910E-001,
1.166900000000000E+009,2.508631348609924E-002,3.155185654759407E-002,-9.180136322975159E-001,3.449681401252747E-001,2.508631348609924E-002,3.155185654759407E-002,-9.180136322975159E-001,3.449681401252747E-001,
1.175266666666667E+009,4.053705558180809E-002,2.331663481891155E-002,-9.171563982963562E-001,3.731732368469238E-001,4.053705558180809E-002,2.331663481891155E-002,-9.171563982963562E-001,3.731732368469238E-001,
1.183633333333334E+009,5.271381512284279E-002,9.161299094557762E-003,-9.128918647766113E-001,3.869353830814362E-001,5.271381512284279E-002,9.161299094557762E-003,-9.128918647766113E-001,3.869353830814362E-001,
1.192000000000000E+009,5.330898985266686E-002,-9.586059488356113E-003,-9.024917483329773E-001,4.108053147792816E-001,5.330898985266686E-002,-9.586059488356113E-003,-9.024917483329773E-001,4.108053147792816E-001,
1.200366666666667E+009,4.429370164871216E-002,-2.782569266855717E-002,-8.919843435287476E-001,4.323763549327850E-001,4.429370164871216E-002,-2.782569266855717E-002,-8.919843435287476E-001,4.323763549327850E-001,
1.208733333333334E+009,2.895657904446125E-002,-3.837744146585465E-002,-8.858363032341003E-001,4.716371297836304E-001,2.895657904446125E-002,-3.837744146585465E-002,-8.858363032341003E-001,4.716371297836304E-001,
1.217100000000000E+009,1.089022960513830E-002,-3.882290422916412E-002,-8.839724063873291E-001,4.778463840484619E-001,1.089022960513830E-002,-3.882290422916412E-002,-8.839724063873291E-001,4.778463840484619E-001,
1.225466666666667E+009,-4.012782126665115E-003,-3.016035817563534E-002,-8.505781888961792E-001,5.073028802871704E-001,-4.012782126665115E-003,-3.016035817563534E-002,-8.505781888961792E-001,5.073028802871704E-001,
1.233833333333334E+009,-1.186829619109631E-002,-1.288042962551117E-002,-8.487961292266846E-001,5.181396603584290E-001,-1.186829619109631E-002,-1.288042962551117E-002,-8.487961292266846E-001,5.181396603584290E-001,
1.242200000000000E+009,-6.708694621920586E-003,2.957760356366634E-003,-8.283051252365112E-001,5.530564785003662E-001,-6.708694621920586E-003,2.957760356366634E-003,-8.283051252365112E-001,5.530564785003662E-001,
1.250566666666667E+009,2.835134277120233E-003,1.599950902163982E-002,-8.094758987426758E-001,5.612663030624390E-001,2.835134277120233E-003,1.599950902163982E-002,-8.094758987426758E-001,5.612663030624390E-001,
1.258933333333334E+009,2.266966737806797E-002,2.003593184053898E-002,-8.025279045104981E-001,5.839127898216248E-001,2.266966737806797E-002,2.003593184053898E-002,-8.025279045104981E-001,5.839127898216248E-001,
1.267300000000000E+009,4.122205823659897E-002,1.226329803466797E-002,-7.862673997879028E-001,6.024845242500305E-001,4.122205823659897E-002,1.226329803466797E-002,-7.862673997879028E-001,6.024845242500305E-001,
1.275666666666667E+009,5.124615132808685E-002,-4.742522723972797E-003,-7.730144858360291E-001,6.101602911949158E-001,5.124615132808685E-002,-4.742522723972797E-003,-7.730144858360291E-001,6.101602911949158E-001,
1.284033333333334E+009,5.413454771041870E-002,-2.572613582015038E-002,-7.543267607688904E-001,6.559259295463562E-001,5.413454771041870E-002,-2.572613582015038E-002,-7.543267607688904E-001,6.559259295463562E-001,
1.292400000000000E+009,4.338853061199188E-002,-4.529251530766487E-002,-7.407630085945129E-001,6.559000015258789E-001,4.338853061199188E-002,-4.529251530766487E-002,-7.407630085945129E-001,6.559000015258789E-001,
1.300766666666667E+009,2.413330227136612E-002,-5.573935061693192E-002,-7.227296233177185E-001,6.819356679916382E-001,2.413330227136612E-002,-5.573935061693192E-002,-7.227296233177185E-001,6.819356679916382E-001,
1.309133333333334E+009,1.751776318997145E-003,-5.604351684451103E-002,-6.990932822227478E-001,6.961268186569214E-001,1.751776318997145E-003,-5.604351684451103E-002,-6.990932822227478E-001,6.961268186569214E-001,
1.317500000000000E+009,-1.511872559785843E-002,-4.577774554491043E-002,-6.909635663032532E-001,7.223371863365173E-001,-1.511872559785843E-002,-4.577774554491043E-002,-6.909635663032532E-001,7.223371863365173E-001,
1.325866666666667E+009,-2.311664447188377E-002,-2.894045412540436E-002,-6.746586561203003E-001,7.471702694892883E-001,-2.311664447188377E-002,-2.894045412540436E-002,-6.746586561203003E-001,7.471702694892883E-001,
1.334233333333334E+009,-1.919726096093655E-002,-9.071518667042255E-003,-6.562809348106384E-001,7.493293881416321E-001,-1.919726096093655E-002,-9.071518667042255E-003,-6.562809348106384E-001,7.493293881416321E-001,
1.342600000000000E+009,-5.487402435392141E-003,3.715112805366516E-003,-6.392083764076233E-001,7.690196037292481E-001,-5.487402435392141E-003,3.715112805366516E-003,-6.392083764076233E-001,7.690196037292481E-001,
1.350966666666667E+009,1.345451362431049E-002,4.921399056911469E-003,-6.153408288955689E-001,7.857580184936523E-001,1.345451362431049E-002,4.921399056911469E-003,-6.153408288955689E-001,7.857580184936523E-001,
1.359333333333334E+009,2.892066165804863E-002,-5.511172581464052E-003,-6.030127406120300E-001,7.889695167541504E-001,2.892066165804863E-002,-5.511172581464052E-003,-6.030127406120300E-001,7.889695167541504E-001,
1.367700000000000E+009,3.630639985203743E-002,-2.326676249504089E-002,-5.677357912063599E-001,8.078572154045105E-001,3.630639985203743E-002,-2.326676249504089E-002,-5.677357912063599E-001,8.078572154045105E-001,
1.376066666666667E+009,3.351086005568504E-002,-4.458273947238922E-002,-5.545059442520142E-001,8.196671605110169E-001,3.351086005568504E-002,-4.458273947238922E-002,-5.545059442520142E-001,8.196671605110169E-001,
1.384433333333334E+009,1.609680056571960E-002,-6.143876910209656E-002,-5.355060100555420E-001,8.481902480125427E-001,1.609680056571960E-002,-6.143876910209656E-002,-5.355060100555420E-001,8.481902480125427E-001,
1.392800000000000E+009,-5.329850129783154E-003,-6.623308360576630E-002,-5.180718898773193E-001,8.577955961227417E-001,-5.329850129783154E-003,-6.623308360576630E-002,-5.180718898773193E-001,8.577955961227417E-001,
1.401166666666667E+009,-2.832223661243916E-002,-6.081253662705421E-002,-4.928071796894074E-001,8.628382682800293E-001,-2.832223661243916E-002,-6.081253662705421E-002,-4.928071796894074E-001,8.628382682800293E-001,
1.409533333333334E+009,-4.538949206471443E-002,-4.318612441420555E-002,-4.679010212421417E-001,8.792957663536072E-001,-4.538949206471443E-002,-4.318612441420555E-002,-4.679010212421417E-001,8.792957663536072E-001,
1.417900000000000E+009,-4.943955689668655E-002,-1.978870667517185E-002,-4.513779580593109E-001,8.756847977638245E-001,-4.943955689668655E-002,-1.978870667517185E-002,-4.513779580593109E-001,8.756847977638245E-001,
1.426266666666667E+009,-4.211204126477242E-002,-4.576671053655446E-004,-4.172973632812500E-001,9.035288691520691E-001,-4.211204126477242E-002,-4.576671053655446E-004,-4.172973632812500E-001,9.035288691520691E-001,
1.434633333333334E+009,-2.347866073250771E-002,1.264713518321514E-002,-4.063225388526917E-001,9.028431773185730E-001,-2.347866073250771E-002,1.264713518321514E-002,-4.063225388526917E-001,9.028431773185730E-001,
1.443000000000000E+009,-3.234999720007181E-003,1.501951925456524E-002,-3.829447031021118E-001,9.128226041793823E-001,-3.234999720007181E-003,1.501951925456524E-002,-3.829447031021118E-001,9.128226041793823E-001,
1.451366666666667E+009,1.373913232237101E-002,3.850459819659591E-003,-3.552146852016449E-001,9.159777164459229E-001,1.373913232237101E-002,3.850459819659591E-003,-3.552146852016449E-001,9.159777164459229E-001,
1.459733333333334E+009,2.312186360359192E-002,-1.355410087853670E-002,-3.324881494045258E-001,9.468401670455933E-001,2.312186360359192E-002,-1.355410087853670E-002,-3.324881494045258E-001,9.468401670455933E-001,
