% Version 1.00
%
%freq[Hz],re:Trc1_S11,im:Trc1_S11,re:Trc2_S21,im:Trc2_S21,re:Trc3_S11,im:Trc3_S11,re:Trc4_S21,im:Trc4_S21,
6.900000000000000E+008,-3.912560269236565E-002,3.315132856369019E-002,-4.932045638561249E-001,-8.573749661445618E-001,-3.912560269236565E-002,3.315132856369019E-002,-4.932045638561249E-001,-8.573749661445618E-001,
6.983666666666666E+008,-3.100802376866341E-002,3.326630592346191E-002,-5.191123485565186E-001,-8.464257121086121E-001,-3.100802376866341E-002,3.326630592346191E-002,-5.191123485565186E-001,-8.464257121086121E-001,
7.067333333333334E+008,-2.481521852314472E-002,2.866560779511929E-002,-5.425425171852112E-001,-8.216581940650940E-001,-2.481521852314472E-002,2.866560779511929E-002,-5.425425171852112E-001,-8.216581940650940E-001,
7.151000000000000E+008,-2.399664744734764E-002,2.067458629608154E-002,-5.766833424568176E-001,-8.201240897178650E-001,-2.399664744734764E-002,2.067458629608154E-002,-5.766833424568176E-001,-8.201240897178650E-001,
7.234666666666666E+008,-2.569642476737499E-002,1.543204486370087E-002,-5.915372371673584E-001,-8.043501377105713E-001,-2.569642476737499E-002,1.543204486370087E-002,-5.915372371673584E-001,-8.043501377105713E-001,
7.318333333333334E+008,-3.299318253993988E-002,1.300583966076374E-002,-6.095218658447266E-001,-7.874165773391724E-001,-3.299318253993988E-002,1.300583966076374E-002,-6.095218658447266E-001,-7.874165773391724E-001,
7.402000000000000E+008,-3.916884958744049E-002,1.472255866974592E-002,-6.189597249031067E-001,-7.630296349525452E-001,-3.916884958744049E-002,1.472255866974592E-002,-6.189597249031067E-001,-7.630296349525452E-001,
7.485666666666666E+008,-4.464903473854065E-002,2.137831784784794E-002,-6.492314338684082E-001,-7.507794499397278E-001,-4.464903473854065E-002,2.137831784784794E-002,-6.492314338684082E-001,-7.507794499397278E-001,
7.569333333333334E+008,-4.889323934912682E-002,3.092607110738754E-002,-6.679000854492188E-001,-7.371847033500671E-001,-4.889323934912682E-002,3.092607110738754E-002,-6.679000854492188E-001,-7.371847033500671E-001,
7.653000000000000E+008,-4.407301172614098E-002,3.945829346776009E-002,-6.760215163230896E-001,-7.175928950309753E-001,-4.407301172614098E-002,3.945829346776009E-002,-6.760215163230896E-001,-7.175928950309753E-001,
7.736666666666666E+008,-3.800354897975922E-002,4.562275111675263E-002,-6.875941157341003E-001,-7.153727412223816E-001,-3.800354897975922E-002,4.562275111675263E-002,-6.875941157341003E-001,-7.153727412223816E-001,
7.820333333333334E+008,-2.976442873477936E-002,4.930245503783226E-002,-7.214950323104858E-001,-6.870788931846619E-001,-2.976442873477936E-002,4.930245503783226E-002,-7.214950323104858E-001,-6.870788931846619E-001,
7.904000000000000E+008,-2.008618041872978E-002,4.771343618631363E-002,-7.311702370643616E-001,-6.675760149955750E-001,-2.008618041872978E-002,4.771343618631363E-002,-7.311702370643616E-001,-6.675760149955750E-001,
7.987666666666666E+008,-1.578442752361298E-002,4.210686683654785E-002,-7.373000383377075E-001,-6.520834565162659E-001,-1.578442752361298E-002,4.210686683654785E-002,-7.373000383377075E-001,-6.520834565162659E-001,
8.071333333333334E+008,-1.337333209812641E-002,3.538475558161736E-002,-7.648930549621582E-001,-6.218146681785584E-001,-1.337333209812641E-002,3.538475558161736E-002,-7.648930549621582E-001,-6.218146681785584E-001,
8.155000000000000E+008,-1.625126414000988E-002,2.796627394855022E-002,-7.900207638740540E-001,-6.101809144020081E-001,-1.625126414000988E-002,2.796627394855022E-002,-7.900207638740540E-001,-6.101809144020081E-001,
8.238666666666666E+008,-2.256185002624989E-002,2.567172050476074E-002,-7.973683476448059E-001,-5.864318013191223E-001,-2.256185002624989E-002,2.567172050476074E-002,-7.973683476448059E-001,-5.864318013191223E-001,
8.322333333333334E+008,-2.812754735350609E-002,2.675545401871204E-002,-8.054037094116211E-001,-5.706254839897156E-001,-2.812754735350609E-002,2.675545401871204E-002,-8.054037094116211E-001,-5.706254839897156E-001,
8.406000000000000E+008,-3.267939016222954E-002,2.977797389030457E-002,-8.194713592529297E-001,-5.469331741333008E-001,-3.267939016222954E-002,2.977797389030457E-002,-8.194713592529297E-001,-5.469331741333008E-001,
8.489666666666668E+008,-3.479301556944847E-002,4.049521684646606E-002,-8.304532766342163E-001,-5.180471539497376E-001,-3.479301556944847E-002,4.049521684646606E-002,-8.304532766342163E-001,-5.180471539497376E-001,
8.573333333333334E+008,-3.338340669870377E-002,4.829858615994453E-002,-8.346864581108093E-001,-4.876204729080200E-001,-3.338340669870377E-002,4.829858615994453E-002,-8.346864581108093E-001,-4.876204729080200E-001,
8.657000000000000E+008,-2.877304889261723E-002,5.598267912864685E-002,-8.609087467193604E-001,-4.923266172409058E-001,-2.877304889261723E-002,5.598267912864685E-002,-8.609087467193604E-001,-4.923266172409058E-001,
8.740666666666668E+008,-2.037279680371285E-002,6.081994250416756E-002,-8.670798540115356E-001,-4.678094685077667E-001,-2.037279680371285E-002,6.081994250416756E-002,-8.670798540115356E-001,-4.678094685077667E-001,
8.824333333333334E+008,-1.243571843951941E-002,6.189279258251190E-002,-8.866107463836670E-001,-4.442099034786224E-001,-1.243571843951941E-002,6.189279258251190E-002,-8.866107463836670E-001,-4.442099034786224E-001,
8.908000000000000E+008,-4.909410141408444E-003,5.804433673620224E-002,-8.996442556381226E-001,-4.265264868736267E-001,-4.909410141408444E-003,5.804433673620224E-002,-8.996442556381226E-001,-4.265264868736267E-001,
8.991666666666668E+008,3.238091303501278E-004,5.167121812701225E-002,-8.993655443191528E-001,-3.985512256622315E-001,3.238091303501278E-004,5.167121812701225E-002,-8.993655443191528E-001,-3.985512256622315E-001,
9.075333333333334E+008,5.546543397940695E-004,4.365225881338120E-002,-9.144192934036255E-001,-3.745399713516235E-001,5.546543397940695E-004,4.365225881338120E-002,-9.144192934036255E-001,-3.745399713516235E-001,
9.159000000000000E+008,-1.801199046894908E-003,3.751383721828461E-002,-9.364827871322632E-001,-3.485561013221741E-001,-1.801199046894908E-003,3.751383721828461E-002,-9.364827871322632E-001,-3.485561013221741E-001,
9.242666666666668E+008,-8.254097774624825E-003,3.721210360527039E-002,-9.279761910438538E-001,-3.274288177490234E-001,-8.254097774624825E-003,3.721210360527039E-002,-9.279761910438538E-001,-3.274288177490234E-001,
9.326333333333334E+008,-1.325404457747936E-002,3.896857053041458E-002,-9.434151649475098E-001,-3.135256171226502E-001,-1.325404457747936E-002,3.896857053041458E-002,-9.434151649475098E-001,-3.135256171226502E-001,
9.410000000000000E+008,-1.747811399400234E-002,4.298007860779762E-002,-9.543362855911255E-001,-2.782281041145325E-001,-1.747811399400234E-002,4.298007860779762E-002,-9.543362855911255E-001,-2.782281041145325E-001,
9.493666666666668E+008,-1.947876811027527E-002,5.227454006671906E-002,-9.599982500076294E-001,-2.470999211072922E-001,-1.947876811027527E-002,5.227454006671906E-002,-9.599982500076294E-001,-2.470999211072922E-001,
9.577333333333334E+008,-1.658368855714798E-002,6.194793060421944E-002,-9.654724001884460E-001,-2.334309518337250E-001,-1.658368855714798E-002,6.194793060421944E-002,-9.654724001884460E-001,-2.334309518337250E-001,
9.661000000000000E+008,-8.514517918229103E-003,6.880765408277512E-002,-9.685513973236084E-001,-1.925225704908371E-001,-8.514517918229103E-003,6.880765408277512E-002,-9.685513973236084E-001,-1.925225704908371E-001,
9.744666666666668E+008,1.521458732895553E-003,6.934392452239990E-002,-9.665362238883972E-001,-1.830736398696899E-001,1.521458732895553E-003,6.934392452239990E-002,-9.665362238883972E-001,-1.830736398696899E-001,
9.828333333333334E+008,1.015042699873447E-002,7.020791620016098E-002,-9.818411469459534E-001,-1.618559658527374E-001,1.015042699873447E-002,7.020791620016098E-002,-9.818411469459534E-001,-1.618559658527374E-001,
9.912000000000000E+008,2.017170935869217E-002,6.372485309839249E-002,-9.791650772094727E-001,-1.406690925359726E-001,2.017170935869217E-002,6.372485309839249E-002,-9.791650772094727E-001,-1.406690925359726E-001,
9.995666666666668E+008,2.387173473834992E-002,5.555734038352966E-002,-9.917634725570679E-001,-1.032346040010452E-001,2.387173473834992E-002,5.555734038352966E-002,-9.917634725570679E-001,-1.032346040010452E-001,
1.007933333333333E+009,2.731589414179325E-002,4.568510502576828E-002,-1.008675336837769E+000,-8.737177401781082E-002,2.731589414179325E-002,4.568510502576828E-002,-1.008675336837769E+000,-8.737177401781082E-002,
1.016300000000000E+009,2.121771499514580E-002,3.909123688936234E-002,-9.946300387382507E-001,-6.176500767469406E-002,2.121771499514580E-002,3.909123688936234E-002,-9.946300387382507E-001,-6.176500767469406E-002,
1.024666666666667E+009,1.380043569952250E-002,3.471672534942627E-002,-9.907209873199463E-001,-3.515394777059555E-002,1.380043569952250E-002,3.471672534942627E-002,-9.907209873199463E-001,-3.515394777059555E-002,
1.033033333333333E+009,8.584364317357540E-003,3.883085027337074E-002,-9.993736147880554E-001,-9.558833204209805E-003,8.584364317357540E-003,3.883085027337074E-002,-9.993736147880554E-001,-9.558833204209805E-003,
1.041400000000000E+009,1.958288485184312E-003,4.365663602948189E-002,-9.985892772674561E-001,1.253494061529636E-002,1.958288485184312E-003,4.365663602948189E-002,-9.985892772674561E-001,1.253494061529636E-002,
1.049766666666667E+009,4.599154926836491E-003,5.329892784357071E-002,-9.856051802635193E-001,4.845428466796875E-002,4.599154926836491E-003,5.329892784357071E-002,-9.856051802635193E-001,4.845428466796875E-002,
1.058133333333333E+009,8.174852468073368E-003,6.253834813833237E-002,-9.873995184898377E-001,7.049673050642014E-002,8.174852468073368E-003,6.253834813833237E-002,-9.873995184898377E-001,7.049673050642014E-002,
1.066500000000000E+009,1.882479339838028E-002,6.715837121009827E-002,-1.002128958702087E+000,1.043465510010719E-001,1.882479339838028E-002,6.715837121009827E-002,-1.002128958702087E+000,1.043465510010719E-001,
1.074866666666667E+009,3.155115991830826E-002,6.639405339956284E-002,-9.983280301094055E-001,1.251211762428284E-001,3.155115991830826E-002,6.639405339956284E-002,-9.983280301094055E-001,1.251211762428284E-001,
1.083233333333334E+009,3.958854451775551E-002,5.850079655647278E-002,-9.800816178321838E-001,1.471934318542481E-001,3.958854451775551E-002,5.850079655647278E-002,-9.800816178321838E-001,1.471934318542481E-001,
1.091600000000000E+009,4.577270895242691E-002,4.800659045577049E-002,-9.636118412017822E-001,1.662754267454147E-001,4.577270895242691E-002,4.800659045577049E-002,-9.636118412017822E-001,1.662754267454147E-001,
1.099966666666667E+009,4.487491026520729E-002,3.405812382698059E-002,-9.585483074188232E-001,2.048959732055664E-001,4.487491026520729E-002,3.405812382698059E-002,-9.585483074188232E-001,2.048959732055664E-001,
1.108333333333334E+009,3.649869933724403E-002,2.524298056960106E-002,-9.592009782791138E-001,2.124838978052139E-001,3.649869933724403E-002,2.524298056960106E-002,-9.592009782791138E-001,2.124838978052139E-001,
1.116700000000000E+009,2.590412460267544E-002,2.114509604871273E-002,-9.524995088577271E-001,2.470652461051941E-001,2.590412460267544E-002,2.114509604871273E-002,-9.524995088577271E-001,2.470652461051941E-001,
1.125066666666667E+009,1.445917412638664E-002,2.487447857856751E-002,-9.527865648269653E-001,2.634457051753998E-001,1.445917412638664E-002,2.487447857856751E-002,-9.527865648269653E-001,2.634457051753998E-001,
1.133433333333334E+009,6.398761179298163E-003,3.428324311971664E-002,-9.517097473144531E-001,3.082741796970367E-001,6.398761179298163E-003,3.428324311971664E-002,-9.517097473144531E-001,3.082741796970367E-001,
1.141800000000000E+009,4.378897137939930E-003,4.766290634870529E-002,-9.299393296241760E-001,3.228011727333069E-001,4.378897137939930E-003,4.766290634870529E-002,-9.299393296241760E-001,3.228011727333069E-001,
1.150166666666667E+009,1.322667300701141E-002,6.244384497404099E-002,-9.208703041076660E-001,3.220747709274292E-001,1.322667300701141E-002,6.244384497404099E-002,-9.208703041076660E-001,3.220747709274292E-001,
1.158533333333334E+009,2.853237465023994E-002,7.022354006767273E-002,-9.140493273735046E-001,3.644506633281708E-001,2.853237465023994E-002,7.022354006767273E-002,-9.140493273735046E-001,3.644506633281708E-001,
1.166900000000000E+009,4.732516780495644E-002,7.100401073694229E-002,-8.976411223411560E-001,3.849438726902008E-001,4.732516780495644E-002,7.100401073694229E-002,-8.976411223411560E-001,3.849438726902008E-001,
1.175266666666667E+009,6.287860870361328E-002,6.104984134435654E-002,-8.924658894538879E-001,4.148367643356323E-001,6.287860870361328E-002,6.104984134435654E-002,-8.924658894538879E-001,4.148367643356323E-001,
1.183633333333334E+009,7.477828115224838E-002,4.666374996304512E-002,-8.912382125854492E-001,4.263793826103210E-001,7.477828115224838E-002,4.666374996304512E-002,-8.912382125854492E-001,4.263793826103210E-001,
1.192000000000000E+009,7.444061338901520E-002,2.781440690159798E-002,-8.772240877151489E-001,4.496096074581146E-001,7.444061338901520E-002,2.781440690159798E-002,-8.772240877151489E-001,4.496096074581146E-001,
1.200366666666667E+009,6.497765332460403E-002,1.096427161246538E-002,-8.654927611351013E-001,4.717615544795990E-001,6.497765332460403E-002,1.096427161246538E-002,-8.654927611351013E-001,4.717615544795990E-001,
1.208733333333334E+009,4.970727488398552E-002,1.184573047794402E-003,-8.589169383049011E-001,5.126529335975647E-001,4.970727488398552E-002,1.184573047794402E-003,-8.589169383049011E-001,5.126529335975647E-001,
1.217100000000000E+009,3.326546028256416E-002,1.538626034744084E-003,-8.550379872322083E-001,5.233402848243713E-001,3.326546028256416E-002,1.538626034744084E-003,-8.550379872322083E-001,5.233402848243713E-001,
1.225466666666667E+009,2.031406760215759E-002,1.154710911214352E-002,-8.235213756561279E-001,5.480907559394836E-001,2.031406760215759E-002,1.154710911214352E-002,-8.235213756561279E-001,5.480907559394836E-001,
1.233833333333334E+009,1.528461929410696E-002,2.794506959617138E-002,-8.184084296226502E-001,5.590216517448425E-001,1.528461929410696E-002,2.794506959617138E-002,-8.184084296226502E-001,5.590216517448425E-001,
1.242200000000000E+009,2.282143943011761E-002,4.266278445720673E-002,-7.943699955940247E-001,5.935752987861633E-001,2.282143943011761E-002,4.266278445720673E-002,-7.943699955940247E-001,5.935752987861633E-001,
1.250566666666667E+009,3.561490029096603E-002,5.358219519257546E-002,-7.741624712944031E-001,5.990843772888184E-001,3.561490029096603E-002,5.358219519257546E-002,-7.741624712944031E-001,5.990843772888184E-001,
1.258933333333334E+009,5.610019341111183E-002,5.487370863556862E-002,-7.670105695724487E-001,6.213929653167725E-001,5.610019341111183E-002,5.487370863556862E-002,-7.670105695724487E-001,6.213929653167725E-001,
1.267300000000000E+009,7.570996880531311E-002,4.526836797595024E-002,-7.483279109001160E-001,6.369222402572632E-001,7.570996880531311E-002,4.526836797595024E-002,-7.483279109001160E-001,6.369222402572632E-001,
1.275666666666667E+009,8.506143093109131E-002,2.773158997297287E-002,-7.351251840591431E-001,6.442720890045166E-001,8.506143093109131E-002,2.773158997297287E-002,-7.351251840591431E-001,6.442720890045166E-001,
1.284033333333334E+009,8.734247088432312E-002,7.009609602391720E-003,-7.212101817131043E-001,6.871590614318848E-001,8.734247088432312E-002,7.009609602391720E-003,-7.212101817131043E-001,6.871590614318848E-001,
1.292400000000000E+009,7.686196267604828E-002,-1.219691708683968E-002,-7.079223990440369E-001,6.902194619178772E-001,7.686196267604828E-002,-1.219691708683968E-002,-7.079223990440369E-001,6.902194619178772E-001,
1.300766666666667E+009,5.706747248768807E-002,-2.140988409519196E-002,-6.851102113723755E-001,7.146168947219849E-001,5.706747248768807E-002,-2.140988409519196E-002,-6.851102113723755E-001,7.146168947219849E-001,
1.309133333333334E+009,3.594915568828583E-002,-2.066160924732685E-002,-6.610238552093506E-001,7.306324243545532E-001,3.594915568828583E-002,-2.066160924732685E-002,-6.610238552093506E-001,7.306324243545532E-001,
1.317500000000000E+009,2.063209563493729E-002,-9.369292296469212E-003,-6.505084037780762E-001,7.614849209785461E-001,2.063209563493729E-002,-9.369292296469212E-003,-6.505084037780762E-001,7.614849209785461E-001,
1.325866666666667E+009,1.475734170526266E-002,7.108374964445829E-003,-6.304447650909424E-001,7.741017341613770E-001,1.475734170526266E-002,7.108374964445829E-003,-6.304447650909424E-001,7.741017341613770E-001,
1.334233333333334E+009,2.231997065246105E-002,2.521091140806675E-002,-6.121080517768860E-001,7.813244462013245E-001,2.231997065246105E-002,2.521091140806675E-002,-6.121080517768860E-001,7.813244462013245E-001,
1.342600000000000E+009,3.755648061633110E-002,3.469202294945717E-002,-5.950525999069214E-001,7.990018725395203E-001,3.755648061633110E-002,3.469202294945717E-002,-5.950525999069214E-001,7.990018725395203E-001,
1.350966666666667E+009,5.803145468235016E-002,3.309052810072899E-002,-5.690076351165772E-001,8.123059868812561E-001,5.803145468235016E-002,3.309052810072899E-002,-5.690076351165772E-001,8.123059868812561E-001,
1.359333333333334E+009,7.374683022499085E-002,2.026786282658577E-002,-5.568289160728455E-001,8.124050498008728E-001,7.374683022499085E-002,2.026786282658577E-002,-5.568289160728455E-001,8.124050498008728E-001,
1.367700000000000E+009,8.047493547201157E-002,1.244099345058203E-003,-5.219836831092835E-001,8.314583897590637E-001,8.047493547201157E-002,1.244099345058203E-003,-5.219836831092835E-001,8.314583897590637E-001,
1.376066666666667E+009,7.718770205974579E-002,-2.086739614605904E-002,-5.063758492469788E-001,8.410633206367493E-001,7.718770205974579E-002,-2.086739614605904E-002,-5.063758492469788E-001,8.410633206367493E-001,
1.384433333333334E+009,6.020430475473404E-002,-3.648396581411362E-002,-4.912125468254089E-001,8.729975223541260E-001,6.020430475473404E-002,-3.648396581411362E-002,-4.912125468254089E-001,8.729975223541260E-001,
1.392800000000000E+009,3.891726583242416E-002,-3.943244367837906E-002,-4.722770452499390E-001,8.799628019332886E-001,3.891726583242416E-002,-3.943244367837906E-002,-4.722770452499390E-001,8.799628019332886E-001,
1.401166666666667E+009,1.704206503927708E-002,-3.296951577067375E-002,-4.440556168556213E-001,8.875260949134827E-001,1.704206503927708E-002,-3.296951577067375E-002,-4.440556168556213E-001,8.875260949134827E-001,
1.409533333333334E+009,2.071992726996541E-003,-1.568175107240677E-002,-4.148650467395783E-001,9.029767513275147E-001,2.071992726996541E-003,-1.568175107240677E-002,-4.148650467395783E-001,9.029767513275147E-001,
1.417900000000000E+009,1.038471586070955E-003,7.579314522445202E-003,-3.966931104660034E-001,8.998566269874573E-001,1.038471586070955E-003,7.579314522445202E-003,-3.966931104660034E-001,8.998566269874573E-001,
1.426266666666667E+009,1.075811218470335E-002,2.516769617795944E-002,-3.599878847599030E-001,9.271341562271118E-001,1.075811218470335E-002,2.516769617795944E-002,-3.599878847599030E-001,9.271341562271118E-001,
1.434633333333334E+009,3.059121966362000E-002,3.438682481646538E-002,-3.513609468936920E-001,9.210951328277588E-001,3.059121966362000E-002,3.438682481646538E-002,-3.513609468936920E-001,9.210951328277588E-001,
1.443000000000000E+009,5.154218524694443E-002,3.243226930499077E-002,-3.259451091289520E-001,9.302784800529480E-001,5.154218524694443E-002,3.243226930499077E-002,-3.259451091289520E-001,9.302784800529480E-001,
1.451366666666667E+009,6.851541996002197E-002,1.781832054257393E-002,-2.994674444198608E-001,9.314954280853272E-001,6.851541996002197E-002,1.781832054257393E-002,-2.994674444198608E-001,9.314954280853272E-001,
1.459733333333334E+009,7.636814564466476E-002,-1.792621565982699E-003,-2.748339474201202E-001,9.580305218696594E-001,7.636814564466476E-002,-1.792621565982699E-003,-2.748339474201202E-001,9.580305218696594E-001,
