% Version 1.00
%
%freq[Hz],re:Trc1_S11,im:Trc1_S11,re:Trc2_S21,im:Trc2_S21,re:Trc3_S11,im:Trc3_S11,re:Trc4_S21,im:Trc4_S21,
6.900000000000000E+008,-3.963308036327362E-002,3.281114622950554E-002,-4.919315576553345E-001,-8.553541898727417E-001,-3.963308036327362E-002,3.281114622950554E-002,-4.919315576553345E-001,-8.553541898727417E-001,
6.983666666666666E+008,-3.136978670954704E-002,3.318651020526886E-002,-5.205041766166687E-001,-8.503085970878601E-001,-3.136978670954704E-002,3.318651020526886E-002,-5.205041766166687E-001,-8.503085970878601E-001,
7.067333333333334E+008,-2.528657391667366E-002,2.871783077716827E-002,-5.407188534736633E-001,-8.217705488204956E-001,-2.528657391667366E-002,2.871783077716827E-002,-5.407188534736633E-001,-8.217705488204956E-001,
7.151000000000000E+008,-2.430476807057858E-002,2.085714228451252E-002,-5.772218704223633E-001,-8.193672299385071E-001,-2.430476807057858E-002,2.085714228451252E-002,-5.772218704223633E-001,-8.193672299385071E-001,
7.234666666666666E+008,-2.612861618399620E-002,1.560619194060564E-002,-5.964279770851135E-001,-8.044081926345825E-001,-2.612861618399620E-002,1.560619194060564E-002,-5.964279770851135E-001,-8.044081926345825E-001,
7.318333333333334E+008,-3.295863047242165E-002,1.251108944416046E-002,-6.033331155776978E-001,-7.912037372589111E-001,-3.295863047242165E-002,1.251108944416046E-002,-6.033331155776978E-001,-7.912037372589111E-001,
7.402000000000000E+008,-3.858694061636925E-002,1.481602154672146E-002,-6.212792396545410E-001,-7.631110548973084E-001,-3.858694061636925E-002,1.481602154672146E-002,-6.212792396545410E-001,-7.631110548973084E-001,
7.485666666666666E+008,-4.439588263630867E-002,2.101989276707172E-002,-6.512970328330994E-001,-7.501801252365112E-001,-4.439588263630867E-002,2.101989276707172E-002,-6.512970328330994E-001,-7.501801252365112E-001,
7.569333333333334E+008,-4.870465770363808E-002,3.087096475064755E-002,-6.661931872367859E-001,-7.377011179924011E-001,-4.870465770363808E-002,3.087096475064755E-002,-6.661931872367859E-001,-7.377011179924011E-001,
7.653000000000000E+008,-4.411462321877480E-002,3.945735469460487E-002,-6.850807666778565E-001,-7.171457409858704E-001,-4.411462321877480E-002,3.945735469460487E-002,-6.850807666778565E-001,-7.171457409858704E-001,
7.736666666666666E+008,-3.860406950116158E-002,4.565746709704399E-002,-6.876658201217651E-001,-7.201051115989685E-001,-3.860406950116158E-002,4.565746709704399E-002,-6.876658201217651E-001,-7.201051115989685E-001,
7.820333333333334E+008,-3.044249303638935E-002,4.958773031830788E-002,-7.211920619010925E-001,-6.853160858154297E-001,-3.044249303638935E-002,4.958773031830788E-002,-7.211920619010925E-001,-6.853160858154297E-001,
7.904000000000000E+008,-2.089586295187473E-002,4.791117087006569E-002,-7.324778437614441E-001,-6.692706942558289E-001,-2.089586295187473E-002,4.791117087006569E-002,-7.324778437614441E-001,-6.692706942558289E-001,
7.987666666666666E+008,-1.678851805627346E-002,4.215170815587044E-002,-7.338863015174866E-001,-6.548970341682434E-001,-1.678851805627346E-002,4.215170815587044E-002,-7.338863015174866E-001,-6.548970341682434E-001,
8.071333333333334E+008,-1.388690154999495E-002,3.531897813081741E-002,-7.686532139778137E-001,-6.226469874382019E-001,-1.388690154999495E-002,3.531897813081741E-002,-7.686532139778137E-001,-6.226469874382019E-001,
8.155000000000000E+008,-1.672695763409138E-002,2.753837779164314E-002,-7.902067899703980E-001,-6.100565791130066E-001,-1.672695763409138E-002,2.753837779164314E-002,-7.902067899703980E-001,-6.100565791130066E-001,
8.238666666666666E+008,-2.283713966608048E-002,2.514750324189663E-002,-7.963548898696899E-001,-5.880067348480225E-001,-2.283713966608048E-002,2.514750324189663E-002,-7.963548898696899E-001,-5.880067348480225E-001,
8.322333333333334E+008,-2.834521047770977E-002,2.651634253561497E-002,-8.102319836616516E-001,-5.696765184402466E-001,-2.834521047770977E-002,2.651634253561497E-002,-8.102319836616516E-001,-5.696765184402466E-001,
8.406000000000000E+008,-3.281801193952560E-002,2.965754829347134E-002,-8.213056325912476E-001,-5.491594672203064E-001,-3.281801193952560E-002,2.965754829347134E-002,-8.213056325912476E-001,-5.491594672203064E-001,
8.489666666666668E+008,-3.521349653601646E-002,4.046882316470146E-002,-8.298335075378418E-001,-5.181182622909546E-001,-3.521349653601646E-002,4.046882316470146E-002,-8.298335075378418E-001,-5.181182622909546E-001,
8.573333333333334E+008,-3.349720314145088E-002,4.840256646275520E-002,-8.323974013328552E-001,-4.856754243373871E-001,-3.349720314145088E-002,4.840256646275520E-002,-8.323974013328552E-001,-4.856754243373871E-001,
8.657000000000000E+008,-2.887568809092045E-002,5.597986653447151E-002,-8.594033718109131E-001,-4.910192489624023E-001,-2.887568809092045E-002,5.597986653447151E-002,-8.594033718109131E-001,-4.910192489624023E-001,
8.740666666666668E+008,-2.086180634796619E-002,6.072939559817314E-002,-8.669255375862122E-001,-4.665728211402893E-001,-2.086180634796619E-002,6.072939559817314E-002,-8.669255375862122E-001,-4.665728211402893E-001,
8.824333333333334E+008,-1.299599371850491E-002,6.228779628872871E-002,-8.861398696899414E-001,-4.452018141746521E-001,-1.299599371850491E-002,6.228779628872871E-002,-8.861398696899414E-001,-4.452018141746521E-001,
8.908000000000000E+008,-5.532870069146156E-003,5.837745591998100E-002,-8.984002470970154E-001,-4.268621206283569E-001,-5.532870069146156E-003,5.837745591998100E-002,-8.984002470970154E-001,-4.268621206283569E-001,
8.991666666666668E+008,-6.925670895725489E-004,5.167810618877411E-002,-8.968645334243774E-001,-4.012358784675598E-001,-6.925670895725489E-004,5.167810618877411E-002,-8.968645334243774E-001,-4.012358784675598E-001,
9.075333333333334E+008,-5.773017182946205E-004,4.357327893376350E-002,-9.149392247200012E-001,-3.746762871742249E-001,-5.773017182946205E-004,4.357327893376350E-002,-9.149392247200012E-001,-3.746762871742249E-001,
9.159000000000000E+008,-2.539602573961020E-003,3.780921176075935E-002,-9.365350604057312E-001,-3.486038446426392E-001,-2.539602573961020E-003,3.780921176075935E-002,-9.365350604057312E-001,-3.486038446426392E-001,
9.242666666666668E+008,-8.435244672000408E-003,3.731878846883774E-002,-9.241998791694641E-001,-3.278479874134064E-001,-8.435244672000408E-003,3.731878846883774E-002,-9.241998791694641E-001,-3.278479874134064E-001,
9.326333333333334E+008,-1.349566690623760E-002,3.886225074529648E-002,-9.403094649314880E-001,-3.103764355182648E-001,-1.349566690623760E-002,3.886225074529648E-002,-9.403094649314880E-001,-3.103764355182648E-001,
9.410000000000000E+008,-1.775027066469193E-002,4.354536160826683E-002,-9.587696194648743E-001,-2.790785133838654E-001,-1.775027066469193E-002,4.354536160826683E-002,-9.587696194648743E-001,-2.790785133838654E-001,
9.493666666666668E+008,-1.979372277855873E-002,5.170392245054245E-002,-9.594819545745850E-001,-2.494359761476517E-001,-1.979372277855873E-002,5.170392245054245E-002,-9.594819545745850E-001,-2.494359761476517E-001,
9.577333333333334E+008,-1.695660687983036E-002,6.210181117057800E-002,-9.663731455802918E-001,-2.323240935802460E-001,-1.695660687983036E-002,6.210181117057800E-002,-9.663731455802918E-001,-2.323240935802460E-001,
9.661000000000000E+008,-9.166709147393704E-003,6.946206837892532E-002,-9.676492810249329E-001,-1.905999779701233E-001,-9.166709147393704E-003,6.946206837892532E-002,-9.676492810249329E-001,-1.905999779701233E-001,
9.744666666666668E+008,1.163766486570239E-003,6.951001286506653E-002,-9.667083024978638E-001,-1.787671446800232E-001,1.163766486570239E-003,6.951001286506653E-002,-9.667083024978638E-001,-1.787671446800232E-001,
9.828333333333334E+008,9.425397031009197E-003,7.069901376962662E-002,-9.821662306785584E-001,-1.649018228054047E-001,9.425397031009197E-003,7.069901376962662E-002,-9.821662306785584E-001,-1.649018228054047E-001,
9.912000000000000E+008,1.974100619554520E-002,6.508991122245789E-002,-9.801028370857239E-001,-1.398427784442902E-001,1.974100619554520E-002,6.508991122245789E-002,-9.801028370857239E-001,-1.398427784442902E-001,
9.995666666666668E+008,2.317487820982933E-002,5.620758607983589E-002,-9.922226667404175E-001,-1.031139045953751E-001,2.317487820982933E-002,5.620758607983589E-002,-9.922226667404175E-001,-1.031139045953751E-001,
1.007933333333333E+009,2.614644542336464E-002,4.664653167128563E-002,-1.007097601890564E+000,-9.525454044342041E-002,2.614644542336464E-002,4.664653167128563E-002,-1.007097601890564E+000,-9.525454044342041E-002,
1.016300000000000E+009,2.033472619950771E-002,3.974926471710205E-002,-9.967706203460693E-001,-6.002641841769218E-002,2.033472619950771E-002,3.974926471710205E-002,-9.967706203460693E-001,-6.002641841769218E-002,
1.024666666666667E+009,1.353074796497822E-002,3.466433659195900E-002,-9.897391796112061E-001,-3.555744141340256E-002,1.353074796497822E-002,3.466433659195900E-002,-9.897391796112061E-001,-3.555744141340256E-002,
1.033033333333333E+009,8.234443143010140E-003,3.911841660737991E-002,-1.000063896179199E+000,-1.004737336188555E-002,8.234443143010140E-003,3.911841660737991E-002,-1.000063896179199E+000,-1.004737336188555E-002,
1.041400000000000E+009,1.714252866804600E-003,4.363532364368439E-002,-9.989923238754273E-001,1.682410761713982E-002,1.714252866804600E-003,4.363532364368439E-002,-9.989923238754273E-001,1.682410761713982E-002,
1.049766666666667E+009,3.949891310185194E-003,5.349935963749886E-002,-9.889268279075623E-001,4.755332320928574E-002,3.949891310185194E-003,5.349935963749886E-002,-9.889268279075623E-001,4.755332320928574E-002,
1.058133333333333E+009,8.344023488461971E-003,6.283546984195709E-002,-9.862928390502930E-001,7.147860527038574E-002,8.344023488461971E-003,6.283546984195709E-002,-9.862928390502930E-001,7.147860527038574E-002,
1.066500000000000E+009,1.856087148189545E-002,6.793689727783203E-002,-1.004239916801453E+000,1.015418544411659E-001,1.856087148189545E-002,6.793689727783203E-002,-1.004239916801453E+000,1.015418544411659E-001,
1.074866666666667E+009,3.158789873123169E-002,6.684442609548569E-002,-9.957792162895203E-001,1.293891519308090E-001,3.158789873123169E-002,6.684442609548569E-002,-9.957792162895203E-001,1.293891519308090E-001,
1.083233333333334E+009,3.999342396855354E-002,5.975769832730293E-002,-9.831451177597046E-001,1.454234570264816E-001,3.999342396855354E-002,5.975769832730293E-002,-9.831451177597046E-001,1.454234570264816E-001,
1.091600000000000E+009,4.570710286498070E-002,4.860249906778336E-002,-9.632914066314697E-001,1.659486442804337E-001,4.570710286498070E-002,4.860249906778336E-002,-9.632914066314697E-001,1.659486442804337E-001,
1.099966666666667E+009,4.460131749510765E-002,3.500713780522347E-002,-9.569969773292542E-001,2.044977098703384E-001,4.460131749510765E-002,3.500713780522347E-002,-9.569969773292542E-001,2.044977098703384E-001,
1.108333333333334E+009,3.599205240607262E-002,2.634789980947971E-002,-9.605678319931030E-001,2.091007232666016E-001,3.599205240607262E-002,2.634789980947971E-002,-9.605678319931030E-001,2.091007232666016E-001,
1.116700000000000E+009,2.553900890052319E-002,2.167655527591705E-002,-9.514806270599365E-001,2.439909726381302E-001,2.553900890052319E-002,2.167655527591705E-002,-9.514806270599365E-001,2.439909726381302E-001,
1.125066666666667E+009,1.410301309078932E-002,2.538211829960346E-002,-9.564764499664307E-001,2.614130377769470E-001,1.410301309078932E-002,2.538211829960346E-002,-9.564764499664307E-001,2.614130377769470E-001,
1.133433333333334E+009,5.617366638034582E-003,3.430765494704247E-002,-9.531949162483215E-001,3.067590296268463E-001,5.617366638034582E-003,3.430765494704247E-002,-9.531949162483215E-001,3.067590296268463E-001,
1.141800000000000E+009,4.025282803922892E-003,4.789661988615990E-002,-9.277656078338623E-001,3.231020867824554E-001,4.025282803922892E-003,4.789661988615990E-002,-9.277656078338623E-001,3.231020867824554E-001,
1.150166666666667E+009,1.309557165950537E-002,6.278614699840546E-002,-9.163305163383484E-001,3.233500421047211E-001,1.309557165950537E-002,6.278614699840546E-002,-9.163305163383484E-001,3.233500421047211E-001,
1.158533333333334E+009,2.873729355633259E-002,7.056861370801926E-002,-9.122515916824341E-001,3.634709417819977E-001,2.873729355633259E-002,7.056861370801926E-002,-9.122515916824341E-001,3.634709417819977E-001,
1.166900000000000E+009,4.697808995842934E-002,7.168439030647278E-002,-8.979268670082092E-001,3.850564062595367E-001,4.697808995842934E-002,7.168439030647278E-002,-8.979268670082092E-001,3.850564062595367E-001,
1.175266666666667E+009,6.255719810724258E-002,6.169082596898079E-002,-8.901281356811523E-001,4.133155345916748E-001,6.255719810724258E-002,6.169082596898079E-002,-8.901281356811523E-001,4.133155345916748E-001,
1.183633333333334E+009,7.473935931921005E-002,4.712143540382385E-002,-8.922734260559082E-001,4.289816915988922E-001,7.473935931921005E-002,4.712143540382385E-002,-8.922734260559082E-001,4.289816915988922E-001,
1.192000000000000E+009,7.457125186920166E-002,2.883367240428925E-002,-8.768910169601440E-001,4.488674998283386E-001,7.457125186920166E-002,2.883367240428925E-002,-8.768910169601440E-001,4.488674998283386E-001,
1.200366666666667E+009,6.480317562818527E-002,1.175118610262871E-002,-8.647966980934143E-001,4.722939133644104E-001,6.480317562818527E-002,1.175118610262871E-002,-8.647966980934143E-001,4.722939133644104E-001,
1.208733333333334E+009,4.944993928074837E-002,1.822839374653995E-003,-8.598850965499878E-001,5.149605870246887E-001,4.944993928074837E-002,1.822839374653995E-003,-8.598850965499878E-001,5.149605870246887E-001,
1.217100000000000E+009,3.283206000924110E-002,1.906709861941636E-003,-8.533658981323242E-001,5.232921242713928E-001,3.283206000924110E-002,1.906709861941636E-003,-8.533658981323242E-001,5.232921242713928E-001,
1.225466666666667E+009,2.001625113189220E-002,1.204570103436709E-002,-8.254809975624085E-001,5.480397939682007E-001,2.001625113189220E-002,1.204570103436709E-002,-8.254809975624085E-001,5.480397939682007E-001,
1.233833333333334E+009,1.475520897656679E-002,2.882831543684006E-002,-8.183332085609436E-001,5.610827803611755E-001,1.475520897656679E-002,2.882831543684006E-002,-8.183332085609436E-001,5.610827803611755E-001,
1.242200000000000E+009,2.249448560178280E-002,4.318840429186821E-002,-7.941034436225891E-001,5.953252315521240E-001,2.249448560178280E-002,4.318840429186821E-002,-7.941034436225891E-001,5.953252315521240E-001,
1.250566666666667E+009,3.539136797189713E-002,5.371477827429771E-002,-7.744622826576233E-001,6.005879044532776E-001,3.539136797189713E-002,5.371477827429771E-002,-7.744622826576233E-001,6.005879044532776E-001,
1.258933333333334E+009,5.630778893828392E-002,5.519960820674896E-002,-7.694188356399536E-001,6.227349638938904E-001,5.630778893828392E-002,5.519960820674896E-002,-7.694188356399536E-001,6.227349638938904E-001,
1.267300000000000E+009,7.602449506521225E-002,4.581301659345627E-002,-7.494177222251892E-001,6.388562917709351E-001,7.602449506521225E-002,4.581301659345627E-002,-7.494177222251892E-001,6.388562917709351E-001,
1.275666666666667E+009,8.518920093774796E-002,2.827972546219826E-002,-7.344268560409546E-001,6.439547538757324E-001,8.518920093774796E-002,2.827972546219826E-002,-7.344268560409546E-001,6.439547538757324E-001,
1.284033333333334E+009,8.770767599344254E-002,7.181133609265089E-003,-7.176010012626648E-001,6.892407536506653E-001,8.770767599344254E-002,7.181133609265089E-003,-7.176010012626648E-001,6.892407536506653E-001,
1.292400000000000E+009,7.755494862794876E-002,-1.129309926182032E-002,-7.108747363090515E-001,6.901786923408508E-001,7.755494862794876E-002,-1.129309926182032E-002,-7.108747363090515E-001,6.901786923408508E-001,
1.300766666666667E+009,5.735542252659798E-002,-2.071212977170944E-002,-6.843948364257813E-001,7.138400673866272E-001,5.735542252659798E-002,-2.071212977170944E-002,-6.843948364257813E-001,7.138400673866272E-001,
1.309133333333334E+009,3.549120202660561E-002,-2.032534033060074E-002,-6.601293087005615E-001,7.245927453041077E-001,3.549120202660561E-002,-2.032534033060074E-002,-6.601293087005615E-001,7.245927453041077E-001,
1.317500000000000E+009,2.007341943681240E-002,-9.196960367262363E-003,-6.500723958015442E-001,7.617762088775635E-001,2.007341943681240E-002,-9.196960367262363E-003,-6.500723958015442E-001,7.617762088775635E-001,
1.325866666666667E+009,1.441278681159020E-002,7.542001083493233E-003,-6.275107264518738E-001,7.756211757659912E-001,1.441278681159020E-002,7.542001083493233E-003,-6.275107264518738E-001,7.756211757659912E-001,
1.334233333333334E+009,2.140833623707295E-002,2.513100951910019E-002,-6.128329634666443E-001,7.804372310638428E-001,2.140833623707295E-002,2.513100951910019E-002,-6.128329634666443E-001,7.804372310638428E-001,
1.342600000000000E+009,3.735778108239174E-002,3.403004258871079E-002,-5.980989336967468E-001,8.003407716751099E-001,3.735778108239174E-002,3.403004258871079E-002,-5.980989336967468E-001,8.003407716751099E-001,
1.350966666666667E+009,5.735870823264122E-002,3.293767198920250E-002,-5.653918981552124E-001,8.155471682548523E-001,5.735870823264122E-002,3.293767198920250E-002,-5.653918981552124E-001,8.155471682548523E-001,
1.359333333333334E+009,7.404886186122894E-002,2.046707831323147E-002,-5.555469393730164E-001,8.134061694145203E-001,7.404886186122894E-002,2.046707831323147E-002,-5.555469393730164E-001,8.134061694145203E-001,
1.367700000000000E+009,8.034007251262665E-002,1.994572579860687E-003,-5.194436907768250E-001,8.313448429107666E-001,8.034007251262665E-002,1.994572579860687E-003,-5.194436907768250E-001,8.313448429107666E-001,
1.376066666666667E+009,7.748224586248398E-002,-1.986683346331120E-002,-5.056879520416260E-001,8.422245979309082E-001,7.748224586248398E-002,-1.986683346331120E-002,-5.056879520416260E-001,8.422245979309082E-001,
1.384433333333334E+009,6.119614839553833E-002,-3.628363087773323E-002,-4.884670078754425E-001,8.736972808837891E-001,6.119614839553833E-002,-3.628363087773323E-002,-4.884670078754425E-001,8.736972808837891E-001,
1.392800000000000E+009,3.921966999769211E-002,-3.930590674281120E-002,-4.719237983226776E-001,8.782379031181335E-001,3.921966999769211E-002,-3.930590674281120E-002,-4.719237983226776E-001,8.782379031181335E-001,
1.401166666666667E+009,1.717854849994183E-002,-3.273366019129753E-002,-4.448949396610260E-001,8.897345662117004E-001,1.717854849994183E-002,-3.273366019129753E-002,-4.448949396610260E-001,8.897345662117004E-001,
1.409533333333334E+009,1.861225115135312E-003,-1.515575312077999E-002,-4.143811762332916E-001,9.007418155670166E-001,1.861225115135312E-003,-1.515575312077999E-002,-4.143811762332916E-001,9.007418155670166E-001,
1.417900000000000E+009,9.088396909646690E-004,8.075411431491375E-003,-3.980286419391632E-001,9.001966714859009E-001,9.088396909646690E-004,8.075411431491375E-003,-3.980286419391632E-001,9.001966714859009E-001,
1.426266666666667E+009,1.019110344350338E-002,2.594915032386780E-002,-3.642328977584839E-001,9.286970496177673E-001,1.019110344350338E-002,2.594915032386780E-002,-3.642328977584839E-001,9.286970496177673E-001,
1.434633333333334E+009,3.079921379685402E-002,3.463746234774590E-002,-3.497960269451141E-001,9.218608736991882E-001,3.079921379685402E-002,3.463746234774590E-002,-3.497960269451141E-001,9.218608736991882E-001,
1.443000000000000E+009,5.152474343776703E-002,3.303769603371620E-002,-3.275591731071472E-001,9.283221364021301E-001,5.152474343776703E-002,3.303769603371620E-002,-3.275591731071472E-001,9.283221364021301E-001,
1.451366666666667E+009,6.831958889961243E-002,1.795837655663490E-002,-3.010381460189819E-001,9.326099753379822E-001,6.831958889961243E-002,1.795837655663490E-002,-3.010381460189819E-001,9.326099753379822E-001,
1.459733333333334E+009,7.641440629959106E-002,-1.873530680313706E-003,-2.781033813953400E-001,9.599864482879639E-001,7.641440629959106E-002,-1.873530680313706E-003,-2.781033813953400E-001,9.599864482879639E-001,
