% Version 1.00
%
%freq[Hz],re:Trc1_S11,im:Trc1_S11,re:Trc2_S21,im:Trc2_S21,re:Trc3_S11,im:Trc3_S11,re:Trc4_S21,im:Trc4_S21,
6.900000000000000E+008,-5.780391767621040E-002,4.512418061494827E-002,-5.140513777732849E-001,-8.441136479377747E-001,-5.780391767621040E-002,4.512418061494827E-002,-5.140513777732849E-001,-8.441136479377747E-001,
6.983666666666666E+008,-4.980765283107758E-002,4.553475230932236E-002,-5.391885042190552E-001,-8.330519199371338E-001,-4.980765283107758E-002,4.553475230932236E-002,-5.391885042190552E-001,-8.330519199371338E-001,
7.067333333333334E+008,-4.430623352527618E-002,4.110435768961906E-002,-5.614567399024963E-001,-8.064851760864258E-001,-4.430623352527618E-002,4.110435768961906E-002,-5.614567399024963E-001,-8.064851760864258E-001,
7.151000000000000E+008,-4.406269639730454E-002,3.411112353205681E-002,-5.967638492584229E-001,-8.041868805885315E-001,-4.406269639730454E-002,3.411112353205681E-002,-5.967638492584229E-001,-8.041868805885315E-001,
7.234666666666666E+008,-4.648941755294800E-002,2.950869686901569E-002,-6.110364794731140E-001,-7.891464233398438E-001,-4.648941755294800E-002,2.950869686901569E-002,-6.110364794731140E-001,-7.891464233398438E-001,
7.318333333333334E+008,-5.371315777301788E-002,2.789955027401447E-002,-6.277565956115723E-001,-7.702950835227966E-001,-5.371315777301788E-002,2.789955027401447E-002,-6.277565956115723E-001,-7.702950835227966E-001,
7.402000000000000E+008,-5.964297801256180E-002,3.046042285859585E-002,-6.384224891662598E-001,-7.452381849288940E-001,-5.964297801256180E-002,3.046042285859585E-002,-6.384224891662598E-001,-7.452381849288940E-001,
7.485666666666666E+008,-6.466016918420792E-002,3.820092231035233E-002,-6.683932542800903E-001,-7.309113740921021E-001,-6.466016918420792E-002,3.820092231035233E-002,-6.683932542800903E-001,-7.309113740921021E-001,
7.569333333333334E+008,-6.797564029693604E-002,4.845572635531426E-002,-6.859275102615356E-001,-7.173408269882202E-001,-6.797564029693604E-002,4.845572635531426E-002,-6.859275102615356E-001,-7.173408269882202E-001,
7.653000000000000E+008,-6.205384060740471E-002,5.735422298312187E-002,-6.956211924552918E-001,-6.989391446113586E-001,-6.205384060740471E-002,5.735422298312187E-002,-6.956211924552918E-001,-6.989391446113586E-001,
7.736666666666666E+008,-5.528154969215393E-002,6.414051353931427E-002,-7.061978578567505E-001,-6.952186822891235E-001,-5.528154969215393E-002,6.414051353931427E-002,-7.061978578567505E-001,-6.952186822891235E-001,
7.820333333333334E+008,-4.637219011783600E-002,6.811108440160751E-002,-7.392342090606690E-001,-6.656129956245422E-001,-4.637219011783600E-002,6.811108440160751E-002,-7.392342090606690E-001,-6.656129956245422E-001,
7.904000000000000E+008,-3.627859801054001E-002,6.719954311847687E-002,-7.480245232582092E-001,-6.472125053405762E-001,-3.627859801054001E-002,6.719954311847687E-002,-7.480245232582092E-001,-6.472125053405762E-001,
7.987666666666666E+008,-3.195035830140114E-002,6.246762350201607E-002,-7.549840211868286E-001,-6.309402585029602E-001,-3.195035830140114E-002,6.246762350201607E-002,-7.549840211868286E-001,-6.309402585029602E-001,
8.071333333333334E+008,-3.040736354887486E-002,5.625387653708458E-002,-7.792651057243347E-001,-5.985040664672852E-001,-3.040736354887486E-002,5.625387653708458E-002,-7.792651057243347E-001,-5.985040664672852E-001,
8.155000000000000E+008,-3.314877673983574E-002,4.950415343046188E-002,-8.061668276786804E-001,-5.868635177612305E-001,-3.314877673983574E-002,4.950415343046188E-002,-8.061668276786804E-001,-5.868635177612305E-001,
8.238666666666666E+008,-3.985396400094032E-002,4.828878119587898E-002,-8.122122883796692E-001,-5.630483031272888E-001,-3.985396400094032E-002,4.828878119587898E-002,-8.122122883796692E-001,-5.630483031272888E-001,
8.322333333333334E+008,-4.511985927820206E-002,5.034409463405609E-002,-8.221670389175415E-001,-5.447380542755127E-001,-4.511985927820206E-002,5.034409463405609E-002,-8.221670389175415E-001,-5.447380542755127E-001,
8.406000000000000E+008,-4.928429052233696E-002,5.398616939783096E-002,-8.330134153366089E-001,-5.211173892021179E-001,-4.928429052233696E-002,5.398616939783096E-002,-8.330134153366089E-001,-5.211173892021179E-001,
8.489666666666668E+008,-5.027930065989494E-002,6.586464494466782E-002,-8.443903326988220E-001,-4.920316040515900E-001,-5.027930065989494E-002,6.586464494466782E-002,-8.443903326988220E-001,-4.920316040515900E-001,
8.573333333333334E+008,-4.739206284284592E-002,7.373097538948059E-002,-8.458940982818604E-001,-4.616525471210480E-001,-4.739206284284592E-002,7.373097538948059E-002,-8.458940982818604E-001,-4.616525471210480E-001,
8.657000000000000E+008,-4.170262813568115E-002,8.124846965074539E-002,-8.735066056251526E-001,-4.650034010410309E-001,-4.170262813568115E-002,8.124846965074539E-002,-8.735066056251526E-001,-4.650034010410309E-001,
8.740666666666668E+008,-3.210257366299629E-002,8.629429340362549E-002,-8.799918889999390E-001,-4.394814670085907E-001,-3.210257366299629E-002,8.629429340362549E-002,-8.799918889999390E-001,-4.394814670085907E-001,
8.824333333333334E+008,-2.376915700733662E-002,8.776419609785080E-002,-8.977560400962830E-001,-4.156215786933899E-001,-2.376915700733662E-002,8.776419609785080E-002,-8.977560400962830E-001,-4.156215786933899E-001,
8.908000000000000E+008,-1.557408459484577E-002,8.439244329929352E-002,-9.103235602378845E-001,-3.971900939941406E-001,-1.557408459484577E-002,8.439244329929352E-002,-9.103235602378845E-001,-3.971900939941406E-001,
8.991666666666668E+008,-9.872451424598694E-003,7.873447984457016E-002,-9.114302396774292E-001,-3.701263964176178E-001,-9.872451424598694E-003,7.873447984457016E-002,-9.114302396774292E-001,-3.701263964176178E-001,
9.075333333333334E+008,-9.220065549015999E-003,7.181800156831741E-002,-9.247972965240479E-001,-3.439544141292572E-001,-9.220065549015999E-003,7.181800156831741E-002,-9.247972965240479E-001,-3.439544141292572E-001,
9.159000000000000E+008,-1.223826222121716E-002,6.638501584529877E-002,-9.453824758529663E-001,-3.187878727912903E-001,-1.223826222121716E-002,6.638501584529877E-002,-9.453824758529663E-001,-3.187878727912903E-001,
9.242666666666668E+008,-1.843742839992046E-002,6.707847863435745E-002,-9.357485175132752E-001,-2.968796193599701E-001,-1.843742839992046E-002,6.707847863435745E-002,-9.357485175132752E-001,-2.968796193599701E-001,
9.326333333333334E+008,-2.297472208738327E-002,6.993784010410309E-002,-9.532379508018494E-001,-2.810489833354950E-001,-2.297472208738327E-002,6.993784010410309E-002,-9.532379508018494E-001,-2.810489833354950E-001,
9.410000000000000E+008,-2.622912079095841E-002,7.451209425926209E-002,-9.618092179298401E-001,-2.453184425830841E-001,-2.622912079095841E-002,7.451209425926209E-002,-9.618092179298401E-001,-2.453184425830841E-001,
9.493666666666668E+008,-2.676086686551571E-002,8.383822441101074E-002,-9.652845859527588E-001,-2.140677869319916E-001,-2.676086686551571E-002,8.383822441101074E-002,-9.652845859527588E-001,-2.140677869319916E-001,
9.577333333333334E+008,-2.238407544791699E-002,9.391106665134430E-002,-9.717317223548889E-001,-2.010105997323990E-001,-2.238407544791699E-002,9.391106665134430E-002,-9.717317223548889E-001,-2.010105997323990E-001,
9.661000000000000E+008,-1.306911930441856E-002,1.003453284502029E-001,-9.704980254173279E-001,-1.586174070835114E-001,-1.306911930441856E-002,1.003453284502029E-001,-9.704980254173279E-001,-1.586174070835114E-001,
9.744666666666668E+008,-1.756136887706816E-003,1.000886857509613E-001,-9.680745601654053E-001,-1.487697213888168E-001,-1.756136887706816E-003,1.000886857509613E-001,-9.680745601654053E-001,-1.487697213888168E-001,
9.828333333333334E+008,7.915750145912170E-003,1.012069135904312E-001,-9.847931265830994E-001,-1.289120316505432E-001,7.915750145912170E-003,1.012069135904312E-001,-9.847931265830994E-001,-1.289120316505432E-001,
9.912000000000000E+008,1.848583668470383E-002,9.466273337602615E-002,-9.814573526382446E-001,-1.067552566528320E-001,1.848583668470383E-002,9.466273337602615E-002,-9.814573526382446E-001,-1.067552566528320E-001,
9.995666666666668E+008,2.221013046801090E-002,8.712191879749298E-002,-9.935843348503113E-001,-6.922372430562973E-002,2.221013046801090E-002,8.712191879749298E-002,-9.935843348503113E-001,-6.922372430562973E-002,
1.007933333333333E+009,2.604213543236256E-002,7.762759923934937E-002,-1.005596876144409E+000,-5.196052044630051E-002,2.604213543236256E-002,7.762759923934937E-002,-1.005596876144409E+000,-5.196052044630051E-002,
1.016300000000000E+009,2.035074494779110E-002,7.206004112958908E-002,-9.931913614273071E-001,-2.618462964892387E-002,2.035074494779110E-002,7.206004112958908E-002,-9.931913614273071E-001,-2.618462964892387E-002,
1.024666666666667E+009,1.282895170152187E-002,6.867831945419312E-002,-9.878363609313965E-001,6.943706539459527E-004,1.282895170152187E-002,6.867831945419312E-002,-9.878363609313965E-001,6.943706539459527E-004,
1.033033333333333E+009,8.566597476601601E-003,7.377795875072479E-002,-9.942833781242371E-001,2.815788984298706E-002,8.566597476601601E-003,7.377795875072479E-002,-9.942833781242371E-001,2.815788984298706E-002,
1.041400000000000E+009,2.730387495830655E-003,7.899323850870132E-002,-9.929843544960022E-001,4.903065413236618E-002,2.730387495830655E-003,7.899323850870132E-002,-9.929843544960022E-001,4.903065413236618E-002,
1.049766666666667E+009,7.070001214742661E-003,8.824862539768219E-002,-9.789068698883057E-001,8.498418331146240E-002,7.070001214742661E-003,8.824862539768219E-002,-9.789068698883057E-001,8.498418331146240E-002,
1.058133333333333E+009,1.230121217668057E-002,9.736438840627670E-002,-9.793213009834290E-001,1.072359457612038E-001,1.230121217668057E-002,9.736438840627670E-002,-9.793213009834290E-001,1.072359457612038E-001,
1.066500000000000E+009,2.436809800565243E-002,1.008177250623703E-001,-9.931052923202515E-001,1.426718980073929E-001,2.436809800565243E-002,1.008177250623703E-001,-9.931052923202515E-001,1.426718980073929E-001,
1.074866666666667E+009,3.858096152544022E-002,9.883709251880646E-002,-9.865044355392456E-001,1.619476228952408E-001,3.858096152544022E-002,9.883709251880646E-002,-9.865044355392456E-001,1.619476228952408E-001,
1.083233333333334E+009,4.730476066470146E-002,9.045755863189697E-002,-9.693208932876587E-001,1.815821081399918E-001,4.730476066470146E-002,9.045755863189697E-002,-9.693208932876587E-001,1.815821081399918E-001,
1.091600000000000E+009,5.408471077680588E-002,7.968392223119736E-002,-9.517997503280640E-001,2.012682259082794E-001,5.408471077680588E-002,7.968392223119736E-002,-9.517997503280640E-001,2.012682259082794E-001,
1.099966666666667E+009,5.275678634643555E-002,6.627260893583298E-002,-9.466630816459656E-001,2.406714707612991E-001,5.275678634643555E-002,6.627260893583298E-002,-9.466630816459656E-001,2.406714707612991E-001,
1.108333333333334E+009,4.473399370908737E-002,5.876773968338966E-002,-9.476593732833862E-001,2.491171061992645E-001,4.473399370908737E-002,5.876773968338966E-002,-9.476593732833862E-001,2.491171061992645E-001,
1.116700000000000E+009,3.465704992413521E-002,5.630501732230187E-002,-9.380261301994324E-001,2.820830643177033E-001,3.465704992413521E-002,5.630501732230187E-002,-9.380261301994324E-001,2.820830643177033E-001,
1.125066666666667E+009,2.444689534604549E-002,6.166641041636467E-002,-9.379432797431946E-001,2.998853921890259E-001,2.444689534604549E-002,6.166641041636467E-002,-9.379432797431946E-001,2.998853921890259E-001,
1.133433333333334E+009,1.798269152641296E-002,7.182419300079346E-002,-9.337871074676514E-001,3.447796702384949E-001,1.798269152641296E-002,7.182419300079346E-002,-9.337871074676514E-001,3.447796702384949E-001,
1.141800000000000E+009,1.838861219584942E-002,8.524288237094879E-002,-9.099147319793701E-001,3.583995401859283E-001,1.838861219584942E-002,8.524288237094879E-002,-9.099147319793701E-001,3.583995401859283E-001,
1.150166666666667E+009,2.855080552399159E-002,9.880162030458450E-002,-9.015803933143616E-001,3.591235876083374E-001,2.855080552399159E-002,9.880162030458450E-002,-9.015803933143616E-001,3.591235876083374E-001,
1.158533333333334E+009,4.585558921098709E-002,1.049997061491013E-001,-8.923490643501282E-001,3.987665176391602E-001,4.585558921098709E-002,1.049997061491013E-001,-8.923490643501282E-001,3.987665176391602E-001,
1.166900000000000E+009,6.570285558700562E-002,1.035560816526413E-001,-8.754215240478516E-001,4.184684455394745E-001,6.570285558700562E-002,1.035560816526413E-001,-8.754215240478516E-001,4.184684455394745E-001,
1.175266666666667E+009,8.160135895013809E-002,9.167701750993729E-002,-8.698080778121948E-001,4.484046697616577E-001,8.160135895013809E-002,9.167701750993729E-002,-8.698080778121948E-001,4.484046697616577E-001,
1.183633333333334E+009,9.333878010511398E-002,7.606782764196396E-002,-8.674513697624207E-001,4.591824114322662E-001,9.333878010511398E-002,7.606782764196396E-002,-8.674513697624207E-001,4.591824114322662E-001,
1.192000000000000E+009,9.288673847913742E-002,5.706880614161491E-002,-8.545820116996765E-001,4.812428355216980E-001,9.288673847913742E-002,5.706880614161491E-002,-8.545820116996765E-001,4.812428355216980E-001,
1.200366666666667E+009,8.300377428531647E-002,4.094069823622704E-002,-8.415949344635010E-001,5.029342770576477E-001,8.300377428531647E-002,4.094069823622704E-002,-8.415949344635010E-001,5.029342770576477E-001,
1.208733333333334E+009,6.825912743806839E-002,3.293924778699875E-002,-8.340801000595093E-001,5.451084971427918E-001,6.825912743806839E-002,3.293924778699875E-002,-8.340801000595093E-001,5.451084971427918E-001,
1.217100000000000E+009,5.307640135288239E-002,3.475876525044441E-002,-8.288068175315857E-001,5.552041530609131E-001,5.307640135288239E-002,3.475876525044441E-002,-8.288068175315857E-001,5.552041530609131E-001,
1.225466666666667E+009,4.212426021695137E-002,4.654466360807419E-002,-7.950053215026856E-001,5.797735452651978E-001,4.212426021695137E-002,4.654466360807419E-002,-7.950053215026856E-001,5.797735452651978E-001,
1.233833333333334E+009,3.942456096410751E-002,6.311952322721481E-002,-7.895488739013672E-001,5.917464494705200E-001,3.942456096410751E-002,6.311952322721481E-002,-7.895488739013672E-001,5.917464494705200E-001,
1.242200000000000E+009,4.929715022444725E-002,7.676031440496445E-002,-7.627181410789490E-001,6.244912743568420E-001,4.929715022444725E-002,7.676031440496445E-002,-7.627181410789490E-001,6.244912743568420E-001,
1.250566666666667E+009,6.379322707653046E-002,8.564211428165436E-002,-7.398490905761719E-001,6.279714703559876E-001,6.379322707653046E-002,8.564211428165436E-002,-7.398490905761719E-001,6.279714703559876E-001,
1.258933333333334E+009,8.446272462606430E-002,8.403617888689041E-002,-7.340712547302246E-001,6.502109766006470E-001,8.446272462606430E-002,8.403617888689041E-002,-7.340712547302246E-001,6.502109766006470E-001,
1.267300000000000E+009,1.042677611112595E-001,7.183121144771576E-002,-7.151114344596863E-001,6.636602878570557E-001,1.042677611112595E-001,7.183121144771576E-002,-7.151114344596863E-001,6.636602878570557E-001,
1.275666666666667E+009,1.126281544566155E-001,5.290141329169273E-002,-7.021433115005493E-001,6.710016131401062E-001,1.126281544566155E-001,5.290141329169273E-002,-7.021433115005493E-001,6.710016131401062E-001,
1.284033333333334E+009,1.142803505063057E-001,3.125251829624176E-002,-6.857201457023621E-001,7.137681841850281E-001,1.142803505063057E-001,3.125251829624176E-002,-6.857201457023621E-001,7.137681841850281E-001,
1.292400000000000E+009,1.034272685647011E-001,1.312905363738537E-002,-6.741864681243897E-001,7.159923315048218E-001,1.034272685647011E-001,1.312905363738537E-002,-6.741864681243897E-001,7.159923315048218E-001,
1.300766666666667E+009,8.422219753265381E-002,5.241589620709419E-003,-6.511133909225464E-001,7.407554388046265E-001,8.422219753265381E-002,5.241589620709419E-003,-6.511133909225464E-001,7.407554388046265E-001,
1.309133333333334E+009,6.494931131601334E-002,7.335896603763104E-003,-6.259094476699829E-001,7.553437352180481E-001,6.494931131601334E-002,7.335896603763104E-003,-6.259094476699829E-001,7.553437352180481E-001,
1.317500000000000E+009,5.162369459867477E-002,1.988640055060387E-002,-6.114246845245361E-001,7.860666513442993E-001,5.162369459867477E-002,1.988640055060387E-002,-6.114246845245361E-001,7.860666513442993E-001,
1.325866666666667E+009,4.872665554285049E-002,3.692452237010002E-002,-5.906918644905090E-001,7.990446090698242E-001,4.872665554285049E-002,3.692452237010002E-002,-5.906918644905090E-001,7.990446090698242E-001,
1.334233333333334E+009,5.875920131802559E-002,5.343496426939964E-002,-5.715554356575012E-001,8.056559562683106E-001,5.875920131802559E-002,5.343496426939964E-002,-5.715554356575012E-001,8.056559562683106E-001,
1.342600000000000E+009,7.551088929176331E-002,6.095814704895020E-002,-5.537625551223755E-001,8.212198615074158E-001,7.551088929176331E-002,6.095814704895020E-002,-5.537625551223755E-001,8.212198615074158E-001,
1.350966666666667E+009,9.622778743505478E-002,5.607909336686134E-002,-5.273655056953430E-001,8.334373235702515E-001,9.622778743505478E-002,5.607909336686134E-002,-5.273655056953430E-001,8.334373235702515E-001,
1.359333333333334E+009,1.107849851250649E-001,4.108553752303124E-002,-5.137488842010498E-001,8.310279846191406E-001,1.107849851250649E-001,4.108553752303124E-002,-5.137488842010498E-001,8.310279846191406E-001,
1.367700000000000E+009,1.158178895711899E-001,2.040987089276314E-002,-4.799968004226685E-001,8.487424254417419E-001,1.158178895711899E-001,2.040987089276314E-002,-4.799968004226685E-001,8.487424254417419E-001,
1.376066666666667E+009,1.115457117557526E-001,-2.336115576326847E-003,-4.652854502201080E-001,8.583278656005859E-001,1.115457117557526E-001,-2.336115576326847E-003,-4.652854502201080E-001,8.583278656005859E-001,
1.384433333333334E+009,9.403103590011597E-002,-1.722234487533569E-002,-4.493412673473358E-001,8.888510465621948E-001,9.403103590011597E-002,-1.722234487533569E-002,-4.493412673473358E-001,8.888510465621948E-001,
1.392800000000000E+009,7.371013611555100E-002,-1.896882243454456E-002,-4.279142916202545E-001,8.973331451416016E-001,7.371013611555100E-002,-1.896882243454456E-002,-4.279142916202545E-001,8.973331451416016E-001,
1.401166666666667E+009,5.434710904955864E-002,-1.078709214925766E-002,-4.000549316406250E-001,9.042596817016602E-001,5.434710904955864E-002,-1.078709214925766E-002,-4.000549316406250E-001,9.042596817016602E-001,
1.409533333333334E+009,4.245851933956146E-002,6.361256353557110E-003,-3.696428835391998E-001,9.185289144515991E-001,4.245851933956146E-002,6.361256353557110E-003,-3.696428835391998E-001,9.185289144515991E-001,
1.417900000000000E+009,4.543900117278099E-002,2.942540496587753E-002,-3.502254188060761E-001,9.140241742134094E-001,4.543900117278099E-002,2.942540496587753E-002,-3.502254188060761E-001,9.140241742134094E-001,
1.426266666666667E+009,5.784262716770172E-002,4.521448165178299E-002,-3.116168081760407E-001,9.388754963874817E-001,5.784262716770172E-002,4.521448165178299E-002,-3.116168081760407E-001,9.388754963874817E-001,
1.434633333333334E+009,7.926900684833527E-002,5.147532373666763E-002,-3.016800284385681E-001,9.318621754646301E-001,7.926900684833527E-002,5.147532373666763E-002,-3.016800284385681E-001,9.318621754646301E-001,
1.443000000000000E+009,9.997903555631638E-002,4.648454487323761E-002,-2.764907479286194E-001,9.382372498512268E-001,9.997903555631638E-002,4.648454487323761E-002,-2.764907479286194E-001,9.382372498512268E-001,
1.451366666666667E+009,1.151721030473709E-001,2.890888042747974E-002,-2.516059577465057E-001,9.369024634361267E-001,1.151721030473709E-001,2.890888042747974E-002,-2.516059577465057E-001,9.369024634361267E-001,
1.459733333333334E+009,1.206464394927025E-001,7.268543820828199E-003,-2.248755842447281E-001,9.638818502426148E-001,1.206464394927025E-001,7.268543820828199E-003,-2.248755842447281E-001,9.638818502426148E-001,
