% Version 1.00
%
%freq[Hz],re:Trc1_S11,im:Trc1_S11,re:Trc2_S21,im:Trc2_S21,re:Trc3_S11,im:Trc3_S11,re:Trc4_S21,im:Trc4_S21,
6.900000000000000E+008,-1.573540270328522E-002,1.884709484875202E-002,-4.712488055229187E-001,-8.745092153549194E-001,-1.573540270328522E-002,1.884709484875202E-002,-4.712488055229187E-001,-8.745092153549194E-001,
6.983666666666666E+008,-7.646550890058279E-003,1.871702820062637E-002,-4.967011213302612E-001,-8.653891682624817E-001,-7.646550890058279E-003,1.871702820062637E-002,-4.967011213302612E-001,-8.653891682624817E-001,
7.067333333333334E+008,-9.916148846969008E-004,1.353133749216795E-002,-5.213901996612549E-001,-8.396244645118713E-001,-9.916148846969008E-004,1.353133749216795E-002,-5.213901996612549E-001,-8.396244645118713E-001,
7.151000000000000E+008,-4.353752010501921E-004,4.560341592878103E-003,-5.549777746200562E-001,-8.386763334274292E-001,-4.353752010501921E-004,4.560341592878103E-003,-5.549777746200562E-001,-8.386763334274292E-001,
7.234666666666666E+008,-1.863130484707654E-003,-1.861244323663414E-003,-5.696973800659180E-001,-8.253514170646668E-001,-1.863130484707654E-003,-1.861244323663414E-003,-5.696973800659180E-001,-8.253514170646668E-001,
7.318333333333334E+008,-9.534002281725407E-003,-5.528067238628864E-003,-5.863018035888672E-001,-8.072103261947632E-001,-9.534002281725407E-003,-5.528067238628864E-003,-5.863018035888672E-001,-8.072103261947632E-001,
7.402000000000000E+008,-1.636949367821217E-002,-5.234864074736834E-003,-5.989172458648682E-001,-7.848033308982849E-001,-1.636949367821217E-002,-5.234864074736834E-003,-5.989172458648682E-001,-7.848033308982849E-001,
7.485666666666666E+008,-2.251471392810345E-002,-9.216513717547059E-006,-6.292866468429565E-001,-7.729195356369019E-001,-2.251471392810345E-002,-9.216513717547059E-006,-6.292866468429565E-001,-7.729195356369019E-001,
7.569333333333334E+008,-2.712196297943592E-002,8.438946679234505E-003,-6.481916308403015E-001,-7.617284059524536E-001,-2.712196297943592E-002,8.438946679234505E-003,-6.481916308403015E-001,-7.617284059524536E-001,
7.653000000000000E+008,-2.284061722457409E-002,1.650615036487579E-002,-6.565759181976318E-001,-7.413233518600464E-001,-2.284061722457409E-002,1.650615036487579E-002,-6.565759181976318E-001,-7.413233518600464E-001,
7.736666666666666E+008,-1.727736555039883E-002,2.235986292362213E-002,-6.700963973999023E-001,-7.369954586029053E-001,-1.727736555039883E-002,2.235986292362213E-002,-6.700963973999023E-001,-7.369954586029053E-001,
7.820333333333334E+008,-9.134172461926937E-003,2.584180235862732E-002,-7.049491405487061E-001,-7.113093137741089E-001,-9.134172461926937E-003,2.584180235862732E-002,-7.049491405487061E-001,-7.113093137741089E-001,
7.904000000000000E+008,5.121641443111002E-004,2.413342334330082E-002,-7.140374183654785E-001,-6.924741268157959E-001,5.121641443111002E-004,2.413342334330082E-002,-7.140374183654785E-001,-6.924741268157959E-001,
7.987666666666666E+008,4.607149865478277E-003,1.767747104167938E-002,-7.203713655471802E-001,-6.774645447731018E-001,4.607149865478277E-003,1.767747104167938E-002,-7.203713655471802E-001,-6.774645447731018E-001,
8.071333333333334E+008,7.550758775323629E-003,1.046572811901569E-002,-7.469223737716675E-001,-6.466986536979675E-001,7.550758775323629E-003,1.046572811901569E-002,-7.469223737716675E-001,-6.466986536979675E-001,
8.155000000000000E+008,3.841868601739407E-003,2.640395192429423E-003,-7.732644081115723E-001,-6.375597715377808E-001,3.841868601739407E-003,2.640395192429423E-003,-7.732644081115723E-001,-6.375597715377808E-001,
8.238666666666666E+008,-2.794287865981460E-003,-9.022222366183996E-004,-7.801447510719299E-001,-6.146949529647827E-001,-2.794287865981460E-003,-9.022222366183996E-004,-7.801447510719299E-001,-6.146949529647827E-001,
8.322333333333334E+008,-9.449707344174385E-003,-9.878652635961771E-004,-7.902721166610718E-001,-5.972743630409241E-001,-9.449707344174385E-003,-9.878652635961771E-004,-7.902721166610718E-001,-5.972743630409241E-001,
8.406000000000000E+008,-1.498887408524752E-002,9.067146456800401E-004,-8.043896555900574E-001,-5.762452483177185E-001,-1.498887408524752E-002,9.067146456800401E-004,-8.043896555900574E-001,-5.762452483177185E-001,
8.489666666666668E+008,-1.819269731640816E-002,1.038984861224890E-002,-8.160146474838257E-001,-5.482441186904907E-001,-1.819269731640816E-002,1.038984861224890E-002,-8.160146474838257E-001,-5.482441186904907E-001,
8.573333333333334E+008,-1.785107329487801E-002,1.728583499789238E-002,-8.202746510505676E-001,-5.180281996726990E-001,-1.785107329487801E-002,1.728583499789238E-002,-8.202746510505676E-001,-5.180281996726990E-001,
8.657000000000000E+008,-1.416361331939697E-002,2.462160028517246E-002,-8.483275175094605E-001,-5.226464867591858E-001,-1.416361331939697E-002,2.462160028517246E-002,-8.483275175094605E-001,-5.226464867591858E-001,
8.740666666666668E+008,-6.527792662382126E-003,2.907203696668148E-002,-8.545711040496826E-001,-4.969829916954041E-001,-6.527792662382126E-003,2.907203696668148E-002,-8.545711040496826E-001,-4.969829916954041E-001,
8.824333333333334E+008,1.125797163695097E-003,3.007608652114868E-002,-8.740854859352112E-001,-4.748612046241760E-001,1.125797163695097E-003,3.007608652114868E-002,-8.740854859352112E-001,-4.748612046241760E-001,
8.908000000000000E+008,8.752457797527313E-003,2.594270743429661E-002,-8.897117972373962E-001,-4.579763114452362E-001,8.752457797527313E-003,2.594270743429661E-002,-8.897117972373962E-001,-4.579763114452362E-001,
8.991666666666668E+008,1.378230750560761E-002,1.964229159057140E-002,-8.903232812881470E-001,-4.303769171237946E-001,1.378230750560761E-002,1.964229159057140E-002,-8.903232812881470E-001,-4.303769171237946E-001,
9.075333333333334E+008,1.368508487939835E-002,1.044211350381374E-002,-9.057599306106567E-001,-4.057404100894928E-001,1.368508487939835E-002,1.044211350381374E-002,-9.057599306106567E-001,-4.057404100894928E-001,
9.159000000000000E+008,1.142903696745634E-002,3.886367427185178E-003,-9.265309572219849E-001,-3.833574056625366E-001,1.142903696745634E-002,3.886367427185178E-003,-9.265309572219849E-001,-3.833574056625366E-001,
9.242666666666668E+008,3.854440758004785E-003,2.704770769923925E-003,-9.185338020324707E-001,-3.606995940208435E-001,3.854440758004785E-003,2.704770769923925E-003,-9.185338020324707E-001,-3.606995940208435E-001,
9.326333333333334E+008,-2.100766636431217E-003,3.372957929968834E-003,-9.346191287040710E-001,-3.479210138320923E-001,-2.100766636431217E-003,3.372957929968834E-003,-9.346191287040710E-001,-3.479210138320923E-001,
9.410000000000000E+008,-8.097928017377853E-003,6.341332104057074E-003,-9.479516744613648E-001,-3.143897056579590E-001,-8.097928017377853E-003,6.341332104057074E-003,-9.479516744613648E-001,-3.143897056579590E-001,
9.493666666666668E+008,-1.197171490639448E-002,1.467262953519821E-002,-9.536643624305725E-001,-2.849681973457336E-001,-1.197171490639448E-002,1.467262953519821E-002,-9.536643624305725E-001,-2.849681973457336E-001,
9.577333333333334E+008,-1.069669425487518E-002,2.330034784972668E-002,-9.620340466499329E-001,-2.699505090713501E-001,-1.069669425487518E-002,2.330034784972668E-002,-9.620340466499329E-001,-2.699505090713501E-001,
9.661000000000000E+008,-3.600302152335644E-003,2.997086010873318E-002,-9.650661349296570E-001,-2.288442254066467E-001,-3.600302152335644E-003,2.997086010873318E-002,-9.650661349296570E-001,-2.288442254066467E-001,
9.744666666666668E+008,5.429252982139587E-003,3.135415166616440E-002,-9.638275504112244E-001,-2.188641577959061E-001,5.429252982139587E-003,3.135415166616440E-002,-9.638275504112244E-001,-2.188641577959061E-001,
9.828333333333334E+008,1.380588673055172E-002,3.212990239262581E-002,-9.799729585647583E-001,-1.988323628902435E-001,1.380588673055172E-002,3.212990239262581E-002,-9.799729585647583E-001,-1.988323628902435E-001,
9.912000000000000E+008,2.374543063342571E-002,2.574770338833332E-002,-9.778055548667908E-001,-1.763116866350174E-001,2.374543063342571E-002,2.574770338833332E-002,-9.778055548667908E-001,-1.763116866350174E-001,
9.995666666666668E+008,2.758309431374073E-002,1.728947274386883E-002,-9.915528297424316E-001,-1.401785463094711E-001,2.758309431374073E-002,1.728947274386883E-002,-9.915528297424316E-001,-1.401785463094711E-001,
1.007933333333333E+009,3.037838824093342E-002,6.918770726770163E-003,-1.006338953971863E+000,-1.239824965596199E-001,3.037838824093342E-002,6.918770726770163E-003,-1.006338953971863E+000,-1.239824965596199E-001,
1.016300000000000E+009,2.332341670989990E-002,-1.005123776849359E-004,-9.931658506393433E-001,-9.732893854379654E-002,2.332341670989990E-002,-1.005123776849359E-004,-9.931658506393433E-001,-9.732893854379654E-002,
1.024666666666667E+009,1.521679386496544E-002,-5.268965847790241E-003,-9.908090233802795E-001,-7.252103090286255E-002,1.521679386496544E-002,-5.268965847790241E-003,-9.908090233802795E-001,-7.252103090286255E-002,
1.033033333333333E+009,8.400503545999527E-003,-1.811286085285246E-003,-9.997856020927429E-001,-4.777895659208298E-002,8.400503545999527E-003,-1.811286085285246E-003,-9.997856020927429E-001,-4.777895659208298E-002,
1.041400000000000E+009,-3.039917210116983E-004,2.506038639694452E-003,-1.000965952873230E+000,-2.620344981551170E-002,-3.039917210116983E-004,2.506038639694452E-003,-1.000965952873230E+000,-2.620344981551170E-002,
1.049766666666667E+009,3.439193824306130E-005,1.215121615678072E-002,-9.886541962623596E-001,8.954757824540138E-003,3.439193824306130E-005,1.215121615678072E-002,-9.886541962623596E-001,8.954757824540138E-003,
1.058133333333333E+009,2.003493951633573E-003,2.082191035151482E-002,-9.920791983604431E-001,3.210174292325974E-002,2.003493951633573E-003,2.082191035151482E-002,-9.920791983604431E-001,3.210174292325974E-002,
1.066500000000000E+009,1.135547738522291E-002,2.584381029009819E-002,-1.008969783782959E+000,6.406874209642410E-002,1.135547738522291E-002,2.584381029009819E-002,-1.008969783782959E+000,6.406874209642410E-002,
1.074866666666667E+009,2.324417233467102E-002,2.520992979407311E-002,-1.005400300025940E+000,8.754705637693405E-002,2.324417233467102E-002,2.520992979407311E-002,-1.005400300025940E+000,8.754705637693405E-002,
1.083233333333334E+009,3.156276419758797E-002,1.739265583455563E-002,-9.888259172439575E-001,1.083909794688225E-001,3.156276419758797E-002,1.739265583455563E-002,-9.888259172439575E-001,1.083909794688225E-001,
1.091600000000000E+009,3.766233846545219E-002,6.716212257742882E-003,-9.710659384727478E-001,1.292060166597366E-001,3.766233846545219E-002,6.716212257742882E-003,-9.710659384727478E-001,1.292060166597366E-001,
1.099966666666667E+009,3.705060854554176E-002,-7.311560213565826E-003,-9.689645171165466E-001,1.672020852565765E-001,3.705060854554176E-002,-7.311560213565826E-003,-9.689645171165466E-001,1.672020852565765E-001,
1.108333333333334E+009,2.870692498981953E-002,-1.675724424421787E-002,-9.658998847007752E-001,1.745119988918304E-001,2.870692498981953E-002,-1.675724424421787E-002,-9.658998847007752E-001,1.745119988918304E-001,
1.116700000000000E+009,1.730922609567642E-002,-2.164567075669766E-002,-9.628871083259583E-001,2.066533416509628E-001,1.730922609567642E-002,-2.164567075669766E-002,-9.628871083259583E-001,2.066533416509628E-001,
1.125066666666667E+009,4.101847298443317E-003,-1.835574395954609E-002,-9.644533395767212E-001,2.228960990905762E-001,4.101847298443317E-003,-1.835574395954609E-002,-9.644533395767212E-001,2.228960990905762E-001,
1.133433333333334E+009,-6.811271421611309E-003,-8.829421363770962E-003,-9.650323987007141E-001,2.671488523483276E-001,-6.811271421611309E-003,-8.829421363770962E-003,-9.650323987007141E-001,2.671488523483276E-001,
1.141800000000000E+009,-1.151637639850378E-002,4.764089826494455E-003,-9.441422820091248E-001,2.823755145072937E-001,-1.151637639850378E-002,4.764089826494455E-003,-9.441422820091248E-001,2.823755145072937E-001,
1.150166666666667E+009,-5.365075077861548E-003,2.066261693835259E-002,-9.356670379638672E-001,2.832072973251343E-001,-5.365075077861548E-003,2.066261693835259E-002,-9.356670379638672E-001,2.832072973251343E-001,
1.158533333333334E+009,7.348982617259026E-003,2.919848449528217E-002,-9.317474365234375E-001,3.244726955890656E-001,7.348982617259026E-003,2.919848449528217E-002,-9.317474365234375E-001,3.244726955890656E-001,
1.166900000000000E+009,2.472485788166523E-002,3.129294514656067E-002,-9.173734784126282E-001,3.457636535167694E-001,2.472485788166523E-002,3.129294514656067E-002,-9.173734784126282E-001,3.457636535167694E-001,
1.175266666666667E+009,4.051375761628151E-002,2.212683111429215E-002,-9.131202697753906E-001,3.774941563606262E-001,4.051375761628151E-002,2.212683111429215E-002,-9.131202697753906E-001,3.774941563606262E-001,
1.183633333333334E+009,5.272366851568222E-002,8.023940958082676E-003,-9.107353687286377E-001,3.889813721179962E-001,5.272366851568222E-002,8.023940958082676E-003,-9.107353687286377E-001,3.889813721179962E-001,
1.192000000000000E+009,5.341254174709320E-002,-1.094663422554731E-002,-8.993380665779114E-001,4.110936522483826E-001,5.341254174709320E-002,-1.094663422554731E-002,-8.993380665779114E-001,4.110936522483826E-001,
1.200366666666667E+009,4.448843374848366E-002,-2.888081595301628E-002,-8.866068124771118E-001,4.338035881519318E-001,4.448843374848366E-002,-2.888081595301628E-002,-8.866068124771118E-001,4.338035881519318E-001,
1.208733333333334E+009,2.905796468257904E-002,-3.943291306495667E-002,-8.816021680831909E-001,4.736726880073547E-001,2.905796468257904E-002,-3.943291306495667E-002,-8.816021680831909E-001,4.736726880073547E-001,
1.217100000000000E+009,1.137803681194782E-002,-3.894630447030067E-002,-8.787816166877747E-001,4.822349548339844E-001,1.137803681194782E-002,-3.894630447030067E-002,-8.787816166877747E-001,4.822349548339844E-001,
1.225466666666667E+009,-3.703942755237222E-003,-2.958793379366398E-002,-8.492075204849243E-001,5.084842443466187E-001,-3.703942755237222E-003,-2.958793379366398E-002,-8.492075204849243E-001,5.084842443466187E-001,
1.233833333333334E+009,-1.150736212730408E-002,-1.251915097236633E-002,-8.456409573554993E-001,5.194638371467590E-001,-1.150736212730408E-002,-1.251915097236633E-002,-8.456409573554993E-001,5.194638371467590E-001,
1.242200000000000E+009,-6.802684627473354E-003,3.735231235623360E-003,-8.243654966354370E-001,5.544400811195374E-001,-6.802684627473354E-003,3.735231235623360E-003,-8.243654966354370E-001,5.544400811195374E-001,
1.250566666666667E+009,3.155294107273221E-003,1.652084477245808E-002,-8.043034672737122E-001,5.620112419128418E-001,3.155294107273221E-003,1.652084477245808E-002,-8.043034672737122E-001,5.620112419128418E-001,
1.258933333333334E+009,2.246566861867905E-002,1.991920545697212E-002,-8.005729317665100E-001,5.854107737541199E-001,2.246566861867905E-002,1.991920545697212E-002,-8.005729317665100E-001,5.854107737541199E-001,
1.267300000000000E+009,4.061742126941681E-002,1.157652959227562E-002,-7.816678285598755E-001,6.014701724052429E-001,4.061742126941681E-002,1.157652959227562E-002,-7.816678285598755E-001,6.014701724052429E-001,
1.275666666666667E+009,5.042480677366257E-002,-5.390923470258713E-003,-7.692003846168518E-001,6.105840802192688E-001,5.042480677366257E-002,-5.390923470258713E-003,-7.692003846168518E-001,6.105840802192688E-001,
1.284033333333334E+009,5.349788814783096E-002,-2.616892382502556E-002,-7.542746663093567E-001,6.537948846817017E-001,5.349788814783096E-002,-2.616892382502556E-002,-7.542746663093567E-001,6.537948846817017E-001,
1.292400000000000E+009,4.339652881026268E-002,-4.625246301293373E-002,-7.409473657608032E-001,6.574628353118897E-001,4.339652881026268E-002,-4.625246301293373E-002,-7.409473657608032E-001,6.574628353118897E-001,
1.300766666666667E+009,2.362294495105743E-002,-5.650330334901810E-002,-7.199777960777283E-001,6.803719401359558E-001,2.362294495105743E-002,-5.650330334901810E-002,-7.199777960777283E-001,6.803719401359558E-001,
1.309133333333334E+009,1.735253375954926E-003,-5.656958371400833E-002,-6.969184279441834E-001,6.946603655815125E-001,1.735253375954926E-003,-5.656958371400833E-002,-6.969184279441834E-001,6.946603655815125E-001,
1.317500000000000E+009,-1.487933378666639E-002,-4.577443748712540E-002,-6.873926520347595E-001,7.257388234138489E-001,-1.487933378666639E-002,-4.577443748712540E-002,-6.873926520347595E-001,7.257388234138489E-001,
1.325866666666667E+009,-2.287875488400459E-002,-2.863573282957077E-002,-6.691292524337769E-001,7.409272789955139E-001,-2.287875488400459E-002,-2.863573282957077E-002,-6.691292524337769E-001,7.409272789955139E-001,
1.334233333333334E+009,-1.826799102127552E-002,-8.577136322855949E-003,-6.536695957183838E-001,7.490941286087036E-001,-1.826799102127552E-002,-8.577136322855949E-003,-6.536695957183838E-001,7.490941286087036E-001,
1.342600000000000E+009,-5.393586121499538E-003,3.992800135165453E-003,-6.376563906669617E-001,7.687781453132629E-001,-5.393586121499538E-003,3.992800135165453E-003,-6.376563906669617E-001,7.687781453132629E-001,
1.350966666666667E+009,1.347796153277159E-002,5.455344449728727E-003,-6.130664348602295E-001,7.821697592735291E-001,1.347796153277159E-002,5.455344449728727E-003,-6.130664348602295E-001,7.821697592735291E-001,
1.359333333333334E+009,2.848487533628941E-002,-5.181189626455307E-003,-6.001726984977722E-001,7.841880321502686E-001,2.848487533628941E-002,-5.181189626455307E-003,-6.001726984977722E-001,7.841880321502686E-001,
1.367700000000000E+009,3.539767861366272E-002,-2.320106700062752E-002,-5.654526948928833E-001,8.065304160118103E-001,3.539767861366272E-002,-2.320106700062752E-002,-5.654526948928833E-001,8.065304160118103E-001,
1.376066666666667E+009,3.220919892191887E-002,-4.457782581448555E-002,-5.512300133705139E-001,8.163678050041199E-001,3.220919892191887E-002,-4.457782581448555E-002,-5.512300133705139E-001,8.163678050041199E-001,
1.384433333333334E+009,1.555011700838804E-002,-6.161247566342354E-002,-5.352393388748169E-001,8.477140069007874E-001,1.555011700838804E-002,-6.161247566342354E-002,-5.352393388748169E-001,8.477140069007874E-001,
1.392800000000000E+009,-6.007147021591663E-003,-6.612491607666016E-002,-5.158244371414185E-001,8.541223406791687E-001,-6.007147021591663E-003,-6.612491607666016E-002,-5.158244371414185E-001,8.541223406791687E-001,
1.401166666666667E+009,-2.872620895504952E-002,-6.117105856537819E-002,-4.899438023567200E-001,8.615140318870544E-001,-2.872620895504952E-002,-6.117105856537819E-002,-4.899438023567200E-001,8.615140318870544E-001,
1.409533333333334E+009,-4.496373608708382E-002,-4.327858611941338E-002,-4.637842476367950E-001,8.776165246963501E-001,-4.496373608708382E-002,-4.327858611941338E-002,-4.637842476367950E-001,8.776165246963501E-001,
1.417900000000000E+009,-4.865160584449768E-002,-1.974650472402573E-002,-4.451349973678589E-001,8.736792206764221E-001,-4.865160584449768E-002,-1.974650472402573E-002,-4.451349973678589E-001,8.736792206764221E-001,
1.426266666666667E+009,-4.133179783821106E-002,2.280380067531951E-005,-4.132688343524933E-001,9.040210843086243E-001,-4.133179783821106E-002,2.280380067531951E-005,-4.132688343524933E-001,9.040210843086243E-001,
1.434633333333334E+009,-2.285709977149963E-002,1.299471221864224E-002,-4.037192165851593E-001,9.007006287574768E-001,-2.285709977149963E-002,1.299471221864224E-002,-4.037192165851593E-001,9.007006287574768E-001,
1.443000000000000E+009,-2.878858707845211E-003,1.527103595435619E-002,-3.809804022312164E-001,9.109391570091248E-001,-2.878858707845211E-003,1.527103595435619E-002,-3.809804022312164E-001,9.109391570091248E-001,
1.451366666666667E+009,1.415131893008947E-002,4.085560329258442E-003,-3.540269136428833E-001,9.154638051986694E-001,1.415131893008947E-002,4.085560329258442E-003,-3.540269136428833E-001,9.154638051986694E-001,
1.459733333333334E+009,2.256368100643158E-002,-1.314089726656675E-002,-3.287374973297119E-001,9.434244036674500E-001,2.256368100643158E-002,-1.314089726656675E-002,-3.287374973297119E-001,9.434244036674500E-001,
