% Version 1.00
%
%freq[Hz],re:Trc1_S11,im:Trc1_S11,re:Trc2_S21,im:Trc2_S21,re:Trc3_S11,im:Trc3_S11,re:Trc4_S21,im:Trc4_S21,
6.900000000000000E+008,-5.405415967106819E-002,3.874770551919937E-002,-5.036948323249817E-001,-8.529061675071716E-001,-5.405415967106819E-002,3.874770551919937E-002,-5.036948323249817E-001,-8.529061675071716E-001,
6.983666666666666E+008,-4.574018344283104E-002,3.895799443125725E-002,-5.277026891708374E-001,-8.405833244323731E-001,-4.574018344283104E-002,3.895799443125725E-002,-5.277026891708374E-001,-8.405833244323731E-001,
7.067333333333334E+008,-4.036248475313187E-002,3.415279835462570E-002,-5.541409254074097E-001,-8.129016757011414E-001,-4.036248475313187E-002,3.415279835462570E-002,-5.541409254074097E-001,-8.129016757011414E-001,
7.151000000000000E+008,-3.949519991874695E-002,2.699835039675236E-002,-5.921192169189453E-001,-8.089621067047119E-001,-3.949519991874695E-002,2.699835039675236E-002,-5.921192169189453E-001,-8.089621067047119E-001,
7.234666666666666E+008,-4.015700146555901E-002,2.167014405131340E-002,-6.035497784614563E-001,-7.980932593345642E-001,-4.015700146555901E-002,2.167014405131340E-002,-6.035497784614563E-001,-7.980932593345642E-001,
7.318333333333334E+008,-4.745867475867271E-002,2.001919783651829E-002,-6.196230649948120E-001,-7.765424847602844E-001,-4.745867475867271E-002,2.001919783651829E-002,-6.196230649948120E-001,-7.765424847602844E-001,
7.402000000000000E+008,-5.340066924691200E-002,2.214593626558781E-002,-6.277046799659729E-001,-7.515444755554199E-001,-5.340066924691200E-002,2.214593626558781E-002,-6.277046799659729E-001,-7.515444755554199E-001,
7.485666666666666E+008,-5.888611823320389E-002,2.983609773218632E-002,-6.613790988922119E-001,-7.397558689117432E-001,-5.888611823320389E-002,2.983609773218632E-002,-6.613790988922119E-001,-7.397558689117432E-001,
7.569333333333334E+008,-6.253227591514587E-002,4.012636467814446E-002,-6.800259351730347E-001,-7.279947400093079E-001,-6.253227591514587E-002,4.012636467814446E-002,-6.800259351730347E-001,-7.279947400093079E-001,
7.653000000000000E+008,-5.771890655159950E-002,4.920126125216484E-002,-6.842389702796936E-001,-7.080242633819580E-001,-5.771890655159950E-002,4.920126125216484E-002,-6.842389702796936E-001,-7.080242633819580E-001,
7.736666666666666E+008,-5.204098299145699E-002,5.595283955335617E-002,-7.028003931045532E-001,-6.983771324157715E-001,-5.204098299145699E-002,5.595283955335617E-002,-7.028003931045532E-001,-6.983771324157715E-001,
7.820333333333334E+008,-4.392181336879730E-002,6.055521965026856E-002,-7.308205366134644E-001,-6.736606359481812E-001,-4.392181336879730E-002,6.055521965026856E-002,-7.308205366134644E-001,-6.736606359481812E-001,
7.904000000000000E+008,-3.453082591295242E-002,5.937384441494942E-002,-7.440147995948792E-001,-6.505139470100403E-001,-3.453082591295242E-002,5.937384441494942E-002,-7.440147995948792E-001,-6.505139470100403E-001,
7.987666666666666E+008,-2.996860258281231E-002,5.392275005578995E-002,-7.508995532989502E-001,-6.353715062141419E-001,-2.996860258281231E-002,5.392275005578995E-002,-7.508995532989502E-001,-6.353715062141419E-001,
8.071333333333334E+008,-2.765724621713162E-002,4.682547971606255E-002,-7.750016450881958E-001,-6.064688563346863E-001,-2.765724621713162E-002,4.682547971606255E-002,-7.750016450881958E-001,-6.064688563346863E-001,
8.155000000000000E+008,-3.050924837589264E-002,3.990424051880837E-002,-7.994670867919922E-001,-5.964866876602173E-001,-3.050924837589264E-002,3.990424051880837E-002,-7.994670867919922E-001,-5.964866876602173E-001,
8.238666666666666E+008,-3.645088151097298E-002,3.782659396529198E-002,-8.077737092971802E-001,-5.755917429924011E-001,-3.645088151097298E-002,3.782659396529198E-002,-8.077737092971802E-001,-5.755917429924011E-001,
8.322333333333334E+008,-4.116323962807655E-002,3.896004334092140E-002,-8.083553314208984E-001,-5.505000948905945E-001,-4.116323962807655E-002,3.896004334092140E-002,-8.083553314208984E-001,-5.505000948905945E-001,
8.406000000000000E+008,-4.502928256988525E-002,4.318944737315178E-002,-8.317562341690064E-001,-5.325202345848084E-001,-4.502928256988525E-002,4.318944737315178E-002,-8.317562341690064E-001,-5.325202345848084E-001,
8.489666666666668E+008,-4.803495854139328E-002,5.463026836514473E-002,-8.399689793586731E-001,-5.017785429954529E-001,-4.803495854139328E-002,5.463026836514473E-002,-8.399689793586731E-001,-5.017785429954529E-001,
8.573333333333334E+008,-4.507419839501381E-002,6.334222853183746E-002,-8.413013815879822E-001,-4.719141423702240E-001,-4.507419839501381E-002,6.334222853183746E-002,-8.413013815879822E-001,-4.719141423702240E-001,
8.657000000000000E+008,-4.032221063971520E-002,7.168377935886383E-002,-8.670821785926819E-001,-4.721416831016541E-001,-4.032221063971520E-002,7.168377935886383E-002,-8.670821785926819E-001,-4.721416831016541E-001,
8.740666666666668E+008,-3.149498999118805E-002,7.713664323091507E-002,-8.707429766654968E-001,-4.453382492065430E-001,-3.149498999118805E-002,7.713664323091507E-002,-8.707429766654968E-001,-4.453382492065430E-001,
8.824333333333334E+008,-2.362658828496933E-002,7.937442511320114E-002,-8.911682367324829E-001,-4.263184666633606E-001,-2.362658828496933E-002,7.937442511320114E-002,-8.911682367324829E-001,-4.263184666633606E-001,
8.908000000000000E+008,-1.578772254288197E-002,7.568945735692978E-002,-9.062601923942566E-001,-4.076448678970337E-001,-1.578772254288197E-002,7.568945735692978E-002,-9.062601923942566E-001,-4.076448678970337E-001,
8.991666666666668E+008,-1.023206580430269E-002,6.982409954071045E-002,-9.078967571258545E-001,-3.806407749652863E-001,-1.023206580430269E-002,6.982409954071045E-002,-9.078967571258545E-001,-3.806407749652863E-001,
9.075333333333334E+008,-9.929853491485119E-003,6.110809370875359E-002,-9.161370992660523E-001,-3.548703193664551E-001,-9.929853491485119E-003,6.110809370875359E-002,-9.161370992660523E-001,-3.548703193664551E-001,
9.159000000000000E+008,-1.265429239720106E-002,5.529124662280083E-002,-9.434514641761780E-001,-3.295994699001312E-001,-1.265429239720106E-002,5.529124662280083E-002,-9.434514641761780E-001,-3.295994699001312E-001,
9.242666666666668E+008,-1.850241422653198E-002,5.523133277893066E-002,-9.341596364974976E-001,-3.102849721908569E-001,-1.850241422653198E-002,5.523133277893066E-002,-9.341596364974976E-001,-3.102849721908569E-001,
9.326333333333334E+008,-2.312222495675087E-002,5.763960629701614E-002,-9.541692733764648E-001,-2.960490584373474E-001,-2.312222495675087E-002,5.763960629701614E-002,-9.541692733764648E-001,-2.960490584373474E-001,
9.410000000000000E+008,-2.632434293627739E-002,6.228042766451836E-002,-9.619453549385071E-001,-2.544069886207581E-001,-2.632434293627739E-002,6.228042766451836E-002,-9.619453549385071E-001,-2.544069886207581E-001,
9.493666666666668E+008,-2.766926586627960E-002,7.197557389736176E-002,-9.634708166122437E-001,-2.285610586404800E-001,-2.766926586627960E-002,7.197557389736176E-002,-9.634708166122437E-001,-2.285610586404800E-001,
9.577333333333334E+008,-2.362176962196827E-002,8.253437280654907E-002,-9.692259430885315E-001,-2.165071219205856E-001,-2.362176962196827E-002,8.253437280654907E-002,-9.692259430885315E-001,-2.165071219205856E-001,
9.661000000000000E+008,-1.525615528225899E-002,9.023119509220123E-002,-9.677757024765015E-001,-1.692731976509094E-001,-1.525615528225899E-002,9.023119509220123E-002,-9.677757024765015E-001,-1.692731976509094E-001,
9.744666666666668E+008,-4.112512338906527E-003,9.132684767246246E-002,-9.709058403968811E-001,-1.655481010675430E-001,-4.112512338906527E-003,9.132684767246246E-002,-9.709058403968811E-001,-1.655481010675430E-001,
9.828333333333334E+008,4.361740779131651E-003,9.272930026054382E-002,-9.856471419334412E-001,-1.420299857854843E-001,4.361740779131651E-003,9.272930026054382E-002,-9.856471419334412E-001,-1.420299857854843E-001,
9.912000000000000E+008,1.472089346498251E-002,8.647003024816513E-002,-9.809550642967224E-001,-1.186996325850487E-001,1.472089346498251E-002,8.647003024816513E-002,-9.809550642967224E-001,-1.186996325850487E-001,
9.995666666666668E+008,1.885949447751045E-002,7.781515270471573E-002,-9.919479489326477E-001,-8.076797425746918E-002,1.885949447751045E-002,7.781515270471573E-002,-9.919479489326477E-001,-8.076797425746918E-002,
1.007933333333333E+009,2.213321067392826E-002,6.778270751237869E-002,-1.007221221923828E+000,-6.791570037603378E-002,2.213321067392826E-002,6.778270751237869E-002,-1.007221221923828E+000,-6.791570037603378E-002,
1.016300000000000E+009,1.665612682700157E-002,6.144895777106285E-002,-9.942382574081421E-001,-3.997732326388359E-002,1.665612682700157E-002,6.144895777106285E-002,-9.942382574081421E-001,-3.997732326388359E-002,
1.024666666666667E+009,9.335511364042759E-003,5.697464570403099E-002,-9.916161894798279E-001,-1.208481285721064E-002,9.335511364042759E-003,5.697464570403099E-002,-9.916161894798279E-001,-1.208481285721064E-002,
1.033033333333333E+009,5.126506090164185E-003,6.142408400774002E-002,-9.956883192062378E-001,1.313548162579536E-002,5.126506090164185E-003,6.142408400774002E-002,-9.956883192062378E-001,1.313548162579536E-002,
1.041400000000000E+009,-1.361010508844629E-004,6.643306463956833E-002,-9.918621182441711E-001,4.059250280261040E-002,-1.361010508844629E-004,6.643306463956833E-002,-9.918621182441711E-001,4.059250280261040E-002,
1.049766666666667E+009,3.038866678252816E-003,7.631918787956238E-002,-9.816734790802002E-001,6.981625407934189E-002,3.038866678252816E-003,7.631918787956238E-002,-9.816734790802002E-001,6.981625407934189E-002,
1.058133333333333E+009,8.337263017892838E-003,8.598822355270386E-002,-9.837239384651184E-001,9.362912923097611E-002,8.337263017892838E-003,8.598822355270386E-002,-9.837239384651184E-001,9.362912923097611E-002,
1.066500000000000E+009,1.943135634064674E-002,9.178756922483444E-002,-1.000650882720947E+000,1.268069297075272E-001,1.943135634064674E-002,9.178756922483444E-002,-1.000650882720947E+000,1.268069297075272E-001,
1.074866666666667E+009,3.309319913387299E-002,9.083969891071320E-002,-9.915912151336670E-001,1.507805138826370E-001,3.309319913387299E-002,9.083969891071320E-002,-9.915912151336670E-001,1.507805138826370E-001,
1.083233333333334E+009,4.246204718947411E-002,8.316617459058762E-002,-9.773668050765991E-001,1.721789389848709E-001,4.246204718947411E-002,8.316617459058762E-002,-9.773668050765991E-001,1.721789389848709E-001,
1.091600000000000E+009,4.817212373018265E-002,7.338879257440567E-002,-9.587626457214356E-001,1.887106746435165E-001,4.817212373018265E-002,7.338879257440567E-002,-9.587626457214356E-001,1.887106746435165E-001,
1.099966666666667E+009,4.716761410236359E-002,5.896691977977753E-002,-9.534451961517334E-001,2.294323444366455E-001,4.716761410236359E-002,5.896691977977753E-002,-9.534451961517334E-001,2.294323444366455E-001,
1.108333333333334E+009,3.903220593929291E-002,5.064809694886208E-002,-9.545819163322449E-001,2.391221225261688E-001,3.903220593929291E-002,5.064809694886208E-002,-9.545819163322449E-001,2.391221225261688E-001,
1.116700000000000E+009,2.821244858205319E-002,4.574343934655190E-002,-9.465541243553162E-001,2.670393288135529E-001,2.821244858205319E-002,4.574343934655190E-002,-9.465541243553162E-001,2.670393288135529E-001,
1.125066666666667E+009,1.738572493195534E-002,5.038168653845787E-002,-9.451338052749634E-001,2.882684469223023E-001,1.738572493195534E-002,5.038168653845787E-002,-9.451338052749634E-001,2.882684469223023E-001,
1.133433333333334E+009,9.986775927245617E-003,5.952882394194603E-002,-9.420706629753113E-001,3.304295241832733E-001,9.986775927245617E-003,5.952882394194603E-002,-9.420706629753113E-001,3.304295241832733E-001,
1.141800000000000E+009,9.953686036169529E-003,7.316960394382477E-002,-9.170200824737549E-001,3.487749695777893E-001,9.953686036169529E-003,7.316960394382477E-002,-9.170200824737549E-001,3.487749695777893E-001,
1.150166666666667E+009,2.032720111310482E-002,8.709020912647247E-002,-9.092926979064941E-001,3.438767790794373E-001,2.032720111310482E-002,8.709020912647247E-002,-9.092926979064941E-001,3.438767790794373E-001,
1.158533333333334E+009,3.726406395435333E-002,9.491285681724548E-002,-9.007830619812012E-001,3.854931890964508E-001,3.726406395435333E-002,9.491285681724548E-002,-9.007830619812012E-001,3.854931890964508E-001,
1.166900000000000E+009,5.705559998750687E-002,9.566421806812286E-002,-8.875812292098999E-001,4.075929224491119E-001,5.705559998750687E-002,9.566421806812286E-002,-8.875812292098999E-001,4.075929224491119E-001,
1.175266666666667E+009,7.295872271060944E-002,8.430491387844086E-002,-8.739944696426392E-001,4.337296187877655E-001,7.295872271060944E-002,8.430491387844086E-002,-8.739944696426392E-001,4.337296187877655E-001,
1.183633333333334E+009,8.467832207679749E-002,7.048021256923676E-002,-8.759660720825195E-001,4.468937814235687E-001,8.467832207679749E-002,7.048021256923676E-002,-8.759660720825195E-001,4.468937814235687E-001,
1.192000000000000E+009,8.457130193710327E-002,5.115666612982750E-002,-8.615110516548157E-001,4.710700511932373E-001,8.457130193710327E-002,5.115666612982750E-002,-8.615110516548157E-001,4.710700511932373E-001,
1.200366666666667E+009,7.472407817840576E-002,3.521456196904182E-002,-8.517748713493347E-001,4.930930137634277E-001,7.472407817840576E-002,3.521456196904182E-002,-8.517748713493347E-001,4.930930137634277E-001,
1.208733333333334E+009,5.917464196681976E-002,2.578156627714634E-002,-8.417761921882629E-001,5.345038771629334E-001,5.917464196681976E-002,2.578156627714634E-002,-8.417761921882629E-001,5.345038771629334E-001,
1.217100000000000E+009,4.333121329545975E-002,2.595548331737518E-002,-8.418706655502319E-001,5.484615564346314E-001,4.333121329545975E-002,2.595548331737518E-002,-8.418706655502319E-001,5.484615564346314E-001,
1.225466666666667E+009,3.139584511518478E-002,3.703911602497101E-002,-8.119627237319946E-001,5.710183382034302E-001,3.139584511518478E-002,3.703911602497101E-002,-8.119627237319946E-001,5.710183382034302E-001,
1.233833333333334E+009,2.712698280811310E-002,5.331601575016975E-002,-8.016581535339356E-001,5.815753936767578E-001,2.712698280811310E-002,5.331601575016975E-002,-8.016581535339356E-001,5.815753936767578E-001,
1.242200000000000E+009,3.696447610855103E-002,6.751760095357895E-002,-7.721672654151917E-001,6.154573559761047E-001,3.696447610855103E-002,6.751760095357895E-002,-7.721672654151917E-001,6.154573559761047E-001,
1.250566666666667E+009,5.140329152345657E-002,7.750851660966873E-002,-7.481686472892761E-001,6.194849014282227E-001,5.140329152345657E-002,7.750851660966873E-002,-7.481686472892761E-001,6.194849014282227E-001,
1.258933333333334E+009,7.313259690999985E-002,7.762447744607925E-002,-7.456603050231934E-001,6.422804594039917E-001,7.313259690999985E-002,7.762447744607925E-002,-7.456603050231934E-001,6.422804594039917E-001,
1.267300000000000E+009,9.342422336339951E-002,6.699112802743912E-002,-7.297592163085938E-001,6.553542017936707E-001,9.342422336339951E-002,6.699112802743912E-002,-7.297592163085938E-001,6.553542017936707E-001,
1.275666666666667E+009,1.029917895793915E-001,4.897132515907288E-002,-7.189603447914124E-001,6.618423461914063E-001,1.029917895793915E-001,4.897132515907288E-002,-7.189603447914124E-001,6.618423461914063E-001,
1.284033333333334E+009,1.051686629652977E-001,2.672506496310234E-002,-6.967668533325195E-001,7.048903107643127E-001,1.051686629652977E-001,2.672506496310234E-002,-6.967668533325195E-001,7.048903107643127E-001,
1.292400000000000E+009,9.442331641912460E-002,8.892842568457127E-003,-6.869195103645325E-001,7.085841298103333E-001,9.442331641912460E-002,8.892842568457127E-003,-6.869195103645325E-001,7.085841298103333E-001,
1.300766666666667E+009,7.393465191125870E-002,2.726525599427987E-005,-6.668176054954529E-001,7.340556383132935E-001,7.393465191125870E-002,2.726525599427987E-005,-6.668176054954529E-001,7.340556383132935E-001,
1.309133333333334E+009,5.324394255876541E-002,1.241882215254009E-003,-6.411531567573547E-001,7.471504807472229E-001,5.324394255876541E-002,1.241882215254009E-003,-6.411531567573547E-001,7.471504807472229E-001,
1.317500000000000E+009,3.833283483982086E-002,1.297246571630240E-002,-6.203553080558777E-001,7.799089550971985E-001,3.833283483982086E-002,1.297246571630240E-002,-6.203553080558777E-001,7.799089550971985E-001,
1.325866666666667E+009,3.471745923161507E-002,2.953636460006237E-002,-6.067373156547546E-001,7.955074906349182E-001,3.471745923161507E-002,2.953636460006237E-002,-6.067373156547546E-001,7.955074906349182E-001,
1.334233333333334E+009,4.351357743144035E-002,4.666680470108986E-002,-5.874526500701904E-001,7.996689081192017E-001,4.351357743144035E-002,4.666680470108986E-002,-5.874526500701904E-001,7.996689081192017E-001,
1.342600000000000E+009,6.009098142385483E-002,5.463510751724243E-002,-5.681768655776978E-001,8.161404728889465E-001,6.009098142385483E-002,5.463510751724243E-002,-5.681768655776978E-001,8.161404728889465E-001,
1.350966666666667E+009,8.190874010324478E-002,5.167849734425545E-002,-5.436012744903565E-001,8.263760805130005E-001,8.190874010324478E-002,5.167849734425545E-002,-5.436012744903565E-001,8.263760805130005E-001,
1.359333333333334E+009,9.750049561262131E-002,3.752785921096802E-002,-5.290972590446472E-001,8.290988206863403E-001,9.750049561262131E-002,3.752785921096802E-002,-5.290972590446472E-001,8.290988206863403E-001,
1.367700000000000E+009,1.047298014163971E-001,1.798883639276028E-002,-4.976635575294495E-001,8.454906940460205E-001,1.047298014163971E-001,1.798883639276028E-002,-4.976635575294495E-001,8.454906940460205E-001,
1.376066666666667E+009,1.004910767078400E-001,-4.327063914388418E-003,-4.822771251201630E-001,8.537205457687378E-001,1.004910767078400E-001,-4.327063914388418E-003,-4.822771251201630E-001,8.537205457687378E-001,
1.384433333333334E+009,8.366631716489792E-002,-1.965390704572201E-002,-4.675571918487549E-001,8.856412172317505E-001,8.366631716489792E-002,-1.965390704572201E-002,-4.675571918487549E-001,8.856412172317505E-001,
1.392800000000000E+009,6.235923618078232E-002,-2.232379093766213E-002,-4.430299699306488E-001,8.958080410957336E-001,6.235923618078232E-002,-2.232379093766213E-002,-4.430299699306488E-001,8.958080410957336E-001,
1.401166666666667E+009,4.149113222956657E-002,-1.413293369114399E-002,-4.172854721546173E-001,9.017848968505859E-001,4.149113222956657E-002,-1.413293369114399E-002,-4.172854721546173E-001,9.017848968505859E-001,
1.409533333333334E+009,2.753106690943241E-002,2.638780046254396E-003,-3.877230584621429E-001,9.159283638000488E-001,2.753106690943241E-002,2.638780046254396E-003,-3.877230584621429E-001,9.159283638000488E-001,
1.417900000000000E+009,2.772878110408783E-002,2.601438574492931E-002,-3.675547242164612E-001,9.085946083068848E-001,2.772878110408783E-002,2.601438574492931E-002,-3.675547242164612E-001,9.085946083068848E-001,
1.426266666666667E+009,3.933334350585938E-002,4.243492335081101E-002,-3.306289315223694E-001,9.406289458274841E-001,3.933334350585938E-002,4.243492335081101E-002,-3.306289315223694E-001,9.406289458274841E-001,
1.434633333333334E+009,5.981144681572914E-002,4.983077198266983E-002,-3.210472762584686E-001,9.296647310256958E-001,5.981144681572914E-002,4.983077198266983E-002,-3.210472762584686E-001,9.296647310256958E-001,
1.443000000000000E+009,8.213632553815842E-002,4.548653215169907E-002,-2.935927212238312E-001,9.372445940971375E-001,8.213632553815842E-002,4.548653215169907E-002,-2.935927212238312E-001,9.372445940971375E-001,
1.451366666666667E+009,9.910214692354202E-002,2.846519462764263E-002,-2.735908627510071E-001,9.393815398216248E-001,9.910214692354202E-002,2.846519462764263E-002,-2.735908627510071E-001,9.393815398216248E-001,
1.459733333333334E+009,1.062118187546730E-001,7.648324593901634E-003,-2.461453676223755E-001,9.668795466423035E-001,1.062118187546730E-001,7.648324593901634E-003,-2.461453676223755E-001,9.668795466423035E-001,
