% Version 1.00
%
%freq[Hz],re:Trc1_S11,im:Trc1_S11,re:Trc2_S21,im:Trc2_S21,re:Trc3_S11,im:Trc3_S11,re:Trc4_S21,im:Trc4_S21,
6.900000000000000E+008,-4.610920697450638E-002,3.708917275071144E-002,-5.011051297187805E-001,-8.522011041641235E-001,-4.610920697450638E-002,3.708917275071144E-002,-5.011051297187805E-001,-8.522011041641235E-001,
6.983666666666666E+008,-3.804490342736244E-002,3.781470283865929E-002,-5.264692306518555E-001,-8.415746688842773E-001,-3.804490342736244E-002,3.781470283865929E-002,-5.264692306518555E-001,-8.415746688842773E-001,
7.067333333333334E+008,-3.194105997681618E-002,3.343257308006287E-002,-5.489259362220764E-001,-8.158923387527466E-001,-3.194105997681618E-002,3.343257308006287E-002,-5.489259362220764E-001,-8.158923387527466E-001,
7.151000000000000E+008,-3.122627735137940E-002,2.575122378766537E-002,-5.837020874023438E-001,-8.133860826492310E-001,-3.122627735137940E-002,2.575122378766537E-002,-5.837020874023438E-001,-8.133860826492310E-001,
7.234666666666666E+008,-3.293763473629952E-002,2.039839513599873E-002,-5.972092747688294E-001,-7.977650165557861E-001,-3.293763473629952E-002,2.039839513599873E-002,-5.972092747688294E-001,-7.977650165557861E-001,
7.318333333333334E+008,-4.014854133129120E-002,1.776991784572601E-002,-6.145066618919373E-001,-7.808757424354553E-001,-4.014854133129120E-002,1.776991784572601E-002,-6.145066618919373E-001,-7.808757424354553E-001,
7.402000000000000E+008,-4.633396863937378E-002,1.934305019676685E-002,-6.250651478767395E-001,-7.556662559509277E-001,-4.633396863937378E-002,1.934305019676685E-002,-6.250651478767395E-001,-7.556662559509277E-001,
7.485666666666666E+008,-5.179151147603989E-002,2.596877701580524E-002,-6.550838947296143E-001,-7.426577806472778E-001,-5.179151147603989E-002,2.596877701580524E-002,-6.550838947296143E-001,-7.426577806472778E-001,
7.569333333333334E+008,-5.584665387868881E-002,3.557812422513962E-002,-6.734833121299744E-001,-7.289965152740479E-001,-5.584665387868881E-002,3.557812422513962E-002,-6.734833121299744E-001,-7.289965152740479E-001,
7.653000000000000E+008,-5.066511407494545E-002,4.451618343591690E-002,-6.808410882949829E-001,-7.097283005714417E-001,-5.066511407494545E-002,4.451618343591690E-002,-6.808410882949829E-001,-7.097283005714417E-001,
7.736666666666666E+008,-4.448546469211578E-002,5.135942995548248E-002,-6.938433051109314E-001,-7.063339948654175E-001,-4.448546469211578E-002,5.135942995548248E-002,-6.938433051109314E-001,-7.063339948654175E-001,
7.820333333333334E+008,-3.591384738683701E-002,5.562478303909302E-002,-7.274681925773621E-001,-6.778405904769898E-001,-3.591384738683701E-002,5.562478303909302E-002,-7.274681925773621E-001,-6.778405904769898E-001,
7.904000000000000E+008,-2.595047280192375E-002,5.468833073973656E-002,-7.364906072616577E-001,-6.589875817298889E-001,-2.595047280192375E-002,5.468833073973656E-002,-7.364906072616577E-001,-6.589875817298889E-001,
7.987666666666666E+008,-2.153242193162441E-002,4.947957396507263E-002,-7.418408393859863E-001,-6.432088613510132E-001,-2.153242193162441E-002,4.947957396507263E-002,-7.418408393859863E-001,-6.432088613510132E-001,
8.071333333333334E+008,-1.942419074475765E-002,4.297042638063431E-002,-7.681154608726502E-001,-6.113132238388062E-001,-1.942419074475765E-002,4.297042638063431E-002,-7.681154608726502E-001,-6.113132238388062E-001,
8.155000000000000E+008,-2.235658839344978E-002,3.578926995396614E-002,-7.946854829788208E-001,-6.000739336013794E-001,-2.235658839344978E-002,3.578926995396614E-002,-7.946854829788208E-001,-6.000739336013794E-001,
8.238666666666666E+008,-2.902768179774284E-002,3.361131995916367E-002,-8.008039593696594E-001,-5.767033696174622E-001,-2.902768179774284E-002,3.361131995916367E-002,-8.008039593696594E-001,-5.767033696174622E-001,
8.322333333333334E+008,-3.470418974757195E-002,3.479627892374992E-002,-8.098860383033752E-001,-5.586825609207153E-001,-3.470418974757195E-002,3.479627892374992E-002,-8.098860383033752E-001,-5.586825609207153E-001,
8.406000000000000E+008,-3.951173648238182E-002,3.789612650871277E-002,-8.218674063682556E-001,-5.365574955940247E-001,-3.951173648238182E-002,3.789612650871277E-002,-8.218674063682556E-001,-5.365574955940247E-001,
8.489666666666668E+008,-4.119040444493294E-002,4.893655702471733E-002,-8.335617780685425E-001,-5.072307586669922E-001,-4.119040444493294E-002,4.893655702471733E-002,-8.335617780685425E-001,-5.072307586669922E-001,
8.573333333333334E+008,-3.913268074393272E-002,5.671574175357819E-002,-8.355417251586914E-001,-4.767541289329529E-001,-3.913268074393272E-002,5.671574175357819E-002,-8.355417251586914E-001,-4.767541289329529E-001,
8.657000000000000E+008,-3.377676755189896E-002,6.441493332386017E-002,-8.632607460021973E-001,-4.812636077404022E-001,-3.377676755189896E-002,6.441493332386017E-002,-8.632607460021973E-001,-4.812636077404022E-001,
8.740666666666668E+008,-2.462320402264595E-002,6.954526901245117E-002,-8.693822026252747E-001,-4.565529227256775E-001,-2.462320402264595E-002,6.954526901245117E-002,-8.693822026252747E-001,-4.565529227256775E-001,
8.824333333333334E+008,-1.637667790055275E-002,7.104823738336563E-002,-8.875864148139954E-001,-4.319454133510590E-001,-1.637667790055275E-002,7.104823738336563E-002,-8.875864148139954E-001,-4.319454133510590E-001,
8.908000000000000E+008,-8.264461532235146E-003,6.751672178506851E-002,-9.011529088020325E-001,-4.146505594253540E-001,-8.264461532235146E-003,6.751672178506851E-002,-9.011529088020325E-001,-4.146505594253540E-001,
8.991666666666668E+008,-2.861762419342995E-003,6.146511062979698E-002,-9.013211727142334E-001,-3.877606093883514E-001,-2.861762419342995E-003,6.146511062979698E-002,-9.013211727142334E-001,-3.877606093883514E-001,
9.075333333333334E+008,-2.582350280135870E-003,5.382561683654785E-002,-9.153963923454285E-001,-3.623121678829193E-001,-2.582350280135870E-003,5.382561683654785E-002,-9.153963923454285E-001,-3.623121678829193E-001,
9.159000000000000E+008,-5.556861404329538E-003,4.800193384289742E-002,-9.363906979560852E-001,-3.378179073333740E-001,-5.556861404329538E-003,4.800193384289742E-002,-9.363906979560852E-001,-3.378179073333740E-001,
9.242666666666668E+008,-1.242168620228767E-002,4.806280881166458E-002,-9.279579520225525E-001,-3.161154985427856E-001,-1.242168620228767E-002,4.806280881166458E-002,-9.279579520225525E-001,-3.161154985427856E-001,
9.326333333333334E+008,-1.753936707973480E-002,5.016624182462692E-002,-9.443951845169067E-001,-3.019453287124634E-001,-1.753936707973480E-002,5.016624182462692E-002,-9.443951845169067E-001,-3.019453287124634E-001,
9.410000000000000E+008,-2.157073840498924E-002,5.434685200452805E-002,-9.545256495475769E-001,-2.659392952919006E-001,-2.157073840498924E-002,5.434685200452805E-002,-9.545256495475769E-001,-2.659392952919006E-001,
9.493666666666668E+008,-2.296141907572746E-002,6.343019008636475E-002,-9.588633775711060E-001,-2.355418354272842E-001,-2.296141907572746E-002,6.343019008636475E-002,-9.588633775711060E-001,-2.355418354272842E-001,
9.577333333333334E+008,-1.918650418519974E-002,7.304016500711441E-002,-9.649954438209534E-001,-2.221886664628983E-001,-1.918650418519974E-002,7.304016500711441E-002,-9.649954438209534E-001,-2.221886664628983E-001,
9.661000000000000E+008,-1.024846732616425E-002,7.951077073812485E-002,-9.663527607917786E-001,-1.800430119037628E-001,-1.024846732616425E-002,7.951077073812485E-002,-9.663527607917786E-001,-1.800430119037628E-001,
9.744666666666668E+008,5.701747722923756E-004,7.964058965444565E-002,-9.642837047576904E-001,-1.695191860198975E-001,5.701747722923756E-004,7.964058965444565E-002,-9.642837047576904E-001,-1.695191860198975E-001,
9.828333333333334E+008,9.713303297758102E-003,8.051223307847977E-002,-9.793882369995117E-001,-1.495531201362610E-001,9.713303297758102E-003,8.051223307847977E-002,-9.793882369995117E-001,-1.495531201362610E-001,
9.912000000000000E+008,2.002920769155026E-002,7.394631952047348E-002,-9.767855405807495E-001,-1.277482509613037E-001,2.002920769155026E-002,7.394631952047348E-002,-9.767855405807495E-001,-1.277482509613037E-001,
9.995666666666668E+008,2.357084304094315E-002,6.615727394819260E-002,-9.892321825027466E-001,-9.074996411800385E-002,2.357084304094315E-002,6.615727394819260E-002,-9.892321825027466E-001,-9.074996411800385E-002,
1.007933333333333E+009,2.695079520344734E-002,5.668695643544197E-002,-1.002346158027649E+000,-7.287124544382095E-002,2.695079520344734E-002,5.668695643544197E-002,-1.002346158027649E+000,-7.287124544382095E-002,
1.016300000000000E+009,2.071900479495525E-002,5.082218721508980E-002,-9.886890649795532E-001,-4.704938456416130E-002,2.071900479495525E-002,5.082218721508980E-002,-9.886890649795532E-001,-4.704938456416130E-002,
1.024666666666667E+009,1.300176884979010E-002,4.712625220417976E-002,-9.844018220901489E-001,-2.099933102726936E-002,1.300176884979010E-002,4.712625220417976E-002,-9.844018220901489E-001,-2.099933102726936E-002,
1.033033333333333E+009,8.021810092031956E-003,5.178153514862061E-002,-9.910252094268799E-001,5.434484221041203E-003,8.021810092031956E-003,5.178153514862061E-002,-9.910252094268799E-001,5.434484221041203E-003,
1.041400000000000E+009,1.500720507465303E-003,5.666189268231392E-002,-9.903181195259094E-001,2.634704671800137E-002,1.500720507465303E-003,5.666189268231392E-002,-9.903181195259094E-001,2.634704671800137E-002,
1.049766666666667E+009,4.760288633406162E-003,6.594084948301315E-002,-9.760938286781311E-001,6.175653636455536E-002,4.760288633406162E-003,6.594084948301315E-002,-9.760938286781311E-001,6.175653636455536E-002,
1.058133333333333E+009,9.188067167997360E-003,7.475985586643219E-002,-9.778903722763062E-001,8.370348066091538E-002,9.188067167997360E-003,7.475985586643219E-002,-9.778903722763062E-001,8.370348066091538E-002,
1.066500000000000E+009,2.051294408738613E-002,7.865420728921890E-002,-9.923756718635559E-001,1.178248897194862E-001,2.051294408738613E-002,7.865420728921890E-002,-9.923756718635559E-001,1.178248897194862E-001,
1.074866666666667E+009,3.403349965810776E-002,7.714090496301651E-002,-9.861226677894592E-001,1.376689970493317E-001,3.403349965810776E-002,7.714090496301651E-002,-9.861226677894592E-001,1.376689970493317E-001,
1.083233333333334E+009,4.261777177453041E-002,6.893981248140335E-002,-9.698472023010254E-001,1.579688340425491E-001,4.261777177453041E-002,6.893981248140335E-002,-9.698472023010254E-001,1.579688340425491E-001,
1.091600000000000E+009,4.891863837838173E-002,5.828453972935677E-002,-9.523499608039856E-001,1.777767390012741E-001,4.891863837838173E-002,5.828453972935677E-002,-9.523499608039856E-001,1.777767390012741E-001,
1.099966666666667E+009,4.795544594526291E-002,4.494545981287956E-002,-9.476141929626465E-001,2.157813906669617E-001,4.795544594526291E-002,4.494545981287956E-002,-9.476141929626465E-001,2.157813906669617E-001,
1.108333333333334E+009,3.989247977733612E-002,3.713640943169594E-002,-9.476826786994934E-001,2.237608581781387E-001,3.989247977733612E-002,3.713640943169594E-002,-9.476826786994934E-001,2.237608581781387E-001,
1.116700000000000E+009,2.954711206257343E-002,3.399299830198288E-002,-9.405750036239624E-001,2.570456266403198E-001,2.954711206257343E-002,3.399299830198288E-002,-9.405750036239624E-001,2.570456266403198E-001,
1.125066666666667E+009,1.857896894216538E-002,3.855763003230095E-002,-9.413135647773743E-001,2.738403081893921E-001,1.857896894216538E-002,3.855763003230095E-002,-9.413135647773743E-001,2.738403081893921E-001,
1.133433333333334E+009,1.095219608396292E-002,4.819555953145027E-002,-9.386556148529053E-001,3.186951577663422E-001,1.095219608396292E-002,4.819555953145027E-002,-9.386556148529053E-001,3.186951577663422E-001,
1.141800000000000E+009,9.807833470404148E-003,6.132701039314270E-002,-9.157802462577820E-001,3.330176770687103E-001,9.807833470404148E-003,6.132701039314270E-002,-9.157802462577820E-001,3.330176770687103E-001,
1.150166666666667E+009,1.878919079899788E-002,7.523779571056366E-002,-9.071933627128601E-001,3.338153362274170E-001,1.878919079899788E-002,7.523779571056366E-002,-9.071933627128601E-001,3.338153362274170E-001,
1.158533333333334E+009,3.462408483028412E-002,8.191163837909699E-002,-8.998960852622986E-001,3.743993937969208E-001,3.462408483028412E-002,8.191163837909699E-002,-8.998960852622986E-001,3.743993937969208E-001,
1.166900000000000E+009,5.362852290272713E-002,8.156816661357880E-002,-8.830563426017761E-001,3.944449424743652E-001,5.362852290272713E-002,8.156816661357880E-002,-8.830563426017761E-001,3.944449424743652E-001,
1.175266666666667E+009,6.930667161941528E-002,7.069242000579834E-002,-8.776466250419617E-001,4.233510196208954E-001,6.930667161941528E-002,7.069242000579834E-002,-8.776466250419617E-001,4.233510196208954E-001,
1.183633333333334E+009,8.096941560506821E-002,5.590811744332314E-002,-8.758567571640015E-001,4.352695643901825E-001,8.096941560506821E-002,5.590811744332314E-002,-8.758567571640015E-001,4.352695643901825E-001,
1.192000000000000E+009,8.086489886045456E-002,3.726673126220703E-002,-8.631616830825806E-001,4.580429494380951E-001,8.086489886045456E-002,3.726673126220703E-002,-8.631616830825806E-001,4.580429494380951E-001,
1.200366666666667E+009,7.150006294250488E-002,2.099491097033024E-002,-8.504912853240967E-001,4.788101613521576E-001,7.150006294250488E-002,2.099491097033024E-002,-8.504912853240967E-001,4.788101613521576E-001,
1.208733333333334E+009,5.681837350130081E-002,1.237011700868607E-002,-8.438188433647156E-001,5.203840732574463E-001,5.681837350130081E-002,1.237011700868607E-002,-8.438188433647156E-001,5.203840732574463E-001,
1.217100000000000E+009,4.104527458548546E-002,1.367643848061562E-002,-8.399754762649536E-001,5.301501154899597E-001,4.104527458548546E-002,1.367643848061562E-002,-8.399754762649536E-001,5.301501154899597E-001,
1.225466666666667E+009,2.882175706326962E-002,2.449657022953033E-002,-8.075379133224487E-001,5.545326471328735E-001,2.882175706326962E-002,2.449657022953033E-002,-8.075379133224487E-001,5.545326471328735E-001,
1.233833333333334E+009,2.443549223244190E-002,4.081559926271439E-002,-8.027140498161316E-001,5.658594369888306E-001,2.443549223244190E-002,4.081559926271439E-002,-8.027140498161316E-001,5.658594369888306E-001,
1.242200000000000E+009,3.277578577399254E-002,5.485132336616516E-002,-7.775712609291077E-001,5.994035005569458E-001,3.277578577399254E-002,5.485132336616516E-002,-7.775712609291077E-001,5.994035005569458E-001,
1.250566666666667E+009,4.582080617547035E-002,6.454107910394669E-002,-7.559311985969544E-001,6.049673557281494E-001,4.582080617547035E-002,6.454107910394669E-002,-7.559311985969544E-001,6.049673557281494E-001,
1.258933333333334E+009,6.613323092460632E-002,6.428134441375732E-002,-7.504194378852844E-001,6.268459558486939E-001,6.613323092460632E-002,6.428134441375732E-002,-7.504194378852844E-001,6.268459558486939E-001,
1.267300000000000E+009,8.541353791952133E-002,5.329830199480057E-002,-7.319430112838745E-001,6.409888267517090E-001,8.541353791952133E-002,5.329830199480057E-002,-7.319430112838745E-001,6.409888267517090E-001,
1.275666666666667E+009,9.432768821716309E-002,3.522472456097603E-002,-7.194757461547852E-001,6.489821672439575E-001,9.432768821716309E-002,3.522472456097603E-002,-7.194757461547852E-001,6.489821672439575E-001,
1.284033333333334E+009,9.632989764213562E-002,1.419317908585072E-002,-7.029505968093872E-001,6.909881830215454E-001,9.632989764213562E-002,1.419317908585072E-002,-7.029505968093872E-001,6.909881830215454E-001,
1.292400000000000E+009,8.611937612295151E-002,-4.389727953821421E-003,-6.909890770912170E-001,6.944442391395569E-001,8.611937612295151E-002,-4.389727953821421E-003,-6.909890770912170E-001,6.944442391395569E-001,
1.300766666666667E+009,6.690388172864914E-002,-1.278592646121979E-002,-6.686602830886841E-001,7.183920145034790E-001,6.690388172864914E-002,-1.278592646121979E-002,-6.686602830886841E-001,7.183920145034790E-001,
1.309133333333334E+009,4.686320573091507E-002,-1.129680871963501E-002,-6.441048383712769E-001,7.327172160148621E-001,4.686320573091507E-002,-1.129680871963501E-002,-6.441048383712769E-001,7.327172160148621E-001,
1.317500000000000E+009,3.241610899567604E-002,6.187596009112895E-004,-6.310658454895020E-001,7.632604241371155E-001,3.241610899567604E-002,6.187596009112895E-004,-6.310658454895020E-001,7.632604241371155E-001,
1.325866666666667E+009,2.776831574738026E-002,1.747304014861584E-002,-6.117216944694519E-001,7.782377600669861E-001,2.776831574738026E-002,1.747304014861584E-002,-6.117216944694519E-001,7.782377600669861E-001,
1.334233333333334E+009,3.578224405646324E-002,3.492457419633865E-002,-5.932705998420715E-001,7.838077545166016E-001,3.578224405646324E-002,3.492457419633865E-002,-5.932705998420715E-001,7.838077545166016E-001,
1.342600000000000E+009,5.118559300899506E-002,4.367109388113022E-002,-5.758715867996216E-001,8.010607957839966E-001,5.118559300899506E-002,4.367109388113022E-002,-5.758715867996216E-001,8.010607957839966E-001,
1.350966666666667E+009,7.116501778364182E-002,4.052076861262322E-002,-5.491973757743835E-001,8.132729530334473E-001,7.116501778364182E-002,4.052076861262322E-002,-5.491973757743835E-001,8.132729530334473E-001,
1.359333333333334E+009,8.598917722702026E-002,2.672013454139233E-002,-5.360546112060547E-001,8.121444582939148E-001,8.598917722702026E-002,2.672013454139233E-002,-5.360546112060547E-001,8.121444582939148E-001,
1.367700000000000E+009,9.181568026542664E-002,6.806279532611370E-003,-5.028111934661865E-001,8.309533596038818E-001,9.181568026542664E-002,6.806279532611370E-003,-5.028111934661865E-001,8.309533596038818E-001,
1.376066666666667E+009,8.796921372413635E-002,-1.541205868124962E-002,-4.875875413417816E-001,8.402297496795654E-001,8.796921372413635E-002,-1.541205868124962E-002,-4.875875413417816E-001,8.402297496795654E-001,
1.384433333333334E+009,7.099783420562744E-002,-3.072286210954189E-002,-4.723115563392639E-001,8.706847429275513E-001,7.099783420562744E-002,-3.072286210954189E-002,-4.723115563392639E-001,8.706847429275513E-001,
1.392800000000000E+009,5.052657797932625E-002,-3.306702896952629E-002,-4.515719115734100E-001,8.786432147026062E-001,5.052657797932625E-002,-3.306702896952629E-002,-4.515719115734100E-001,8.786432147026062E-001,
1.401166666666667E+009,3.027338907122612E-002,-2.566313184797764E-002,-4.245905280113220E-001,8.859416246414185E-001,3.027338907122612E-002,-2.566313184797764E-002,-4.245905280113220E-001,8.859416246414185E-001,
1.409533333333334E+009,1.696189306676388E-002,-8.244626224040985E-003,-3.954717516899109E-001,9.003601670265198E-001,1.696189306676388E-002,-8.244626224040985E-003,-3.954717516899109E-001,9.003601670265198E-001,
1.417900000000000E+009,1.773299090564251E-002,1.495073363184929E-002,-3.761741220951080E-001,8.960818052291870E-001,1.773299090564251E-002,1.495073363184929E-002,-3.761741220951080E-001,8.960818052291870E-001,
1.426266666666667E+009,2.833424694836140E-002,3.182357177138329E-002,-3.394328355789185E-001,9.223045706748962E-001,2.833424694836140E-002,3.182357177138329E-002,-3.394328355789185E-001,9.223045706748962E-001,
1.434633333333334E+009,4.869552701711655E-002,4.010676965117455E-002,-3.299055099487305E-001,9.163264036178589E-001,4.869552701711655E-002,4.010676965117455E-002,-3.299055099487305E-001,9.163264036178589E-001,
1.443000000000000E+009,6.909030675888062E-002,3.718863055109978E-002,-3.055830895900726E-001,9.240236878395081E-001,6.909030675888062E-002,3.718863055109978E-002,-3.055830895900726E-001,9.240236878395081E-001,
1.451366666666667E+009,8.504581451416016E-002,2.139355801045895E-002,-2.798512279987335E-001,9.244273304939270E-001,8.504581451416016E-002,2.139355801045895E-002,-2.798512279987335E-001,9.244273304939270E-001,
1.459733333333334E+009,9.167170524597168E-002,8.567076874896884E-004,-2.542059719562531E-001,9.506631493568420E-001,9.167170524597168E-002,8.567076874896884E-004,-2.542059719562531E-001,9.506631493568420E-001,
