% Version 1.00
%
%freq[Hz],re:Trc1_S11,im:Trc1_S11,re:Trc2_S21,im:Trc2_S21,re:Trc3_S11,im:Trc3_S11,re:Trc4_S21,im:Trc4_S21,
6.900000000000000E+008,-4.065789282321930E-002,3.027234412729740E-002,-4.941340684890747E-001,-8.471582531929016E-001,-4.065789282321930E-002,3.027234412729740E-002,-4.941340684890747E-001,-8.471582531929016E-001,
6.983666666666666E+008,-3.290579095482826E-002,3.058738075196743E-002,-5.199453830718994E-001,-8.368085622787476E-001,-3.290579095482826E-002,3.058738075196743E-002,-5.199453830718994E-001,-8.368085622787476E-001,
7.067333333333334E+008,-2.733192779123783E-002,2.622847445309162E-002,-5.433381199836731E-001,-8.123904466629028E-001,-2.733192779123783E-002,2.622847445309162E-002,-5.433381199836731E-001,-8.123904466629028E-001,
7.151000000000000E+008,-2.715605683624744E-002,1.839615404605866E-002,-5.784258246421814E-001,-8.100808858871460E-001,-2.715605683624744E-002,1.839615404605866E-002,-5.784258246421814E-001,-8.100808858871460E-001,
7.234666666666666E+008,-2.917051874101162E-002,1.304149627685547E-002,-5.912378430366516E-001,-7.948690652847290E-001,-2.917051874101162E-002,1.304149627685547E-002,-5.912378430366516E-001,-7.948690652847290E-001,
7.318333333333334E+008,-3.645177185535431E-002,1.070156507194042E-002,-6.077346205711365E-001,-7.773531675338745E-001,-3.645177185535431E-002,1.070156507194042E-002,-6.077346205711365E-001,-7.773531675338745E-001,
7.402000000000000E+008,-4.265878349542618E-002,1.225067302584648E-002,-6.186084747314453E-001,-7.529332637786865E-001,-4.265878349542618E-002,1.225067302584648E-002,-6.186084747314453E-001,-7.529332637786865E-001,
7.485666666666666E+008,-4.780187085270882E-002,1.879986561834812E-002,-6.490264534950256E-001,-7.408648729324341E-001,-4.780187085270882E-002,1.879986561834812E-002,-6.490264534950256E-001,-7.408648729324341E-001,
7.569333333333334E+008,-5.170606449246407E-002,2.824107743799686E-002,-6.677574515342712E-001,-7.259067296981812E-001,-5.170606449246407E-002,2.824107743799686E-002,-6.677574515342712E-001,-7.259067296981812E-001,
7.653000000000000E+008,-4.622401297092438E-002,3.667302057147026E-002,-6.746267676353455E-001,-7.085053920745850E-001,-4.622401297092438E-002,3.667302057147026E-002,-6.746267676353455E-001,-7.085053920745850E-001,
7.736666666666666E+008,-4.000461474061012E-002,4.314197972416878E-002,-6.875475049018860E-001,-7.044776678085327E-001,-4.000461474061012E-002,4.314197972416878E-002,-6.875475049018860E-001,-7.044776678085327E-001,
7.820333333333334E+008,-3.173069655895233E-002,4.708510637283325E-002,-7.209637165069580E-001,-6.765968799591065E-001,-3.173069655895233E-002,4.708510637283325E-002,-7.209637165069580E-001,-6.765968799591065E-001,
7.904000000000000E+008,-2.217536233365536E-002,4.597432911396027E-002,-7.306641340255737E-001,-6.579769253730774E-001,-2.217536233365536E-002,4.597432911396027E-002,-7.306641340255737E-001,-6.579769253730774E-001,
7.987666666666666E+008,-1.814923435449600E-002,4.078694805502892E-002,-7.352755069732666E-001,-6.425081491470337E-001,-1.814923435449600E-002,4.078694805502892E-002,-7.352755069732666E-001,-6.425081491470337E-001,
8.071333333333334E+008,-1.641343347728252E-002,3.453681245446205E-002,-7.625778913497925E-001,-6.105428338050842E-001,-1.641343347728252E-002,3.453681245446205E-002,-7.625778913497925E-001,-6.105428338050842E-001,
8.155000000000000E+008,-1.969604194164276E-002,2.752882055938244E-002,-7.872922420501709E-001,-5.994126200675964E-001,-1.969604194164276E-002,2.752882055938244E-002,-7.872922420501709E-001,-5.994126200675964E-001,
8.238666666666666E+008,-2.606042101979256E-002,2.539628371596336E-002,-7.935659885406494E-001,-5.768207311630249E-001,-2.606042101979256E-002,2.539628371596336E-002,-7.935659885406494E-001,-5.768207311630249E-001,
8.322333333333334E+008,-3.192459419369698E-002,2.654558420181274E-002,-8.029612302780151E-001,-5.589529275894165E-001,-3.192459419369698E-002,2.654558420181274E-002,-8.029612302780151E-001,-5.589529275894165E-001,
8.406000000000000E+008,-3.686922043561935E-002,2.938606217503548E-002,-8.153084516525269E-001,-5.379959344863892E-001,-3.686922043561935E-002,2.938606217503548E-002,-8.153084516525269E-001,-5.379959344863892E-001,
8.489666666666668E+008,-3.822393715381622E-002,3.988625854253769E-002,-8.281813859939575E-001,-5.090124011039734E-001,-3.822393715381622E-002,3.988625854253769E-002,-8.281813859939575E-001,-5.090124011039734E-001,
8.573333333333334E+008,-3.654990717768669E-002,4.742720723152161E-002,-8.295456767082214E-001,-4.774838089942932E-001,-3.654990717768669E-002,4.742720723152161E-002,-8.295456767082214E-001,-4.774838089942932E-001,
8.657000000000000E+008,-3.136489167809486E-002,5.488190799951553E-002,-8.592879176139832E-001,-4.821600914001465E-001,-3.136489167809486E-002,5.488190799951553E-002,-8.592879176139832E-001,-4.821600914001465E-001,
8.740666666666668E+008,-2.261849120259285E-002,5.988438427448273E-002,-8.629423379898071E-001,-4.569156467914581E-001,-2.261849120259285E-002,5.988438427448273E-002,-8.629423379898071E-001,-4.569156467914581E-001,
8.824333333333334E+008,-1.475053001195192E-002,6.136925145983696E-002,-8.820329904556274E-001,-4.333981871604919E-001,-1.475053001195192E-002,6.136925145983696E-002,-8.820329904556274E-001,-4.333981871604919E-001,
8.908000000000000E+008,-6.758416071534157E-003,5.796588584780693E-002,-8.959336876869202E-001,-4.163197576999664E-001,-6.758416071534157E-003,5.796588584780693E-002,-8.959336876869202E-001,-4.163197576999664E-001,
8.991666666666668E+008,-1.552009722217917E-003,5.237771943211556E-002,-8.956465125083923E-001,-3.883448243141174E-001,-1.552009722217917E-003,5.237771943211556E-002,-8.956465125083923E-001,-3.883448243141174E-001,
9.075333333333334E+008,-1.371468184515834E-003,4.462122917175293E-002,-9.106598496437073E-001,-3.639581799507141E-001,-1.371468184515834E-003,4.462122917175293E-002,-9.106598496437073E-001,-3.639581799507141E-001,
9.159000000000000E+008,-4.221717827022076E-003,3.896489739418030E-002,-9.311698079109192E-001,-3.397194445133209E-001,-4.221717827022076E-003,3.896489739418030E-002,-9.311698079109192E-001,-3.397194445133209E-001,
9.242666666666668E+008,-1.106860488653183E-002,3.876019269227982E-002,-9.229450821876526E-001,-3.180279433727264E-001,-1.106860488653183E-002,3.876019269227982E-002,-9.229450821876526E-001,-3.180279433727264E-001,
9.326333333333334E+008,-1.631097681820393E-002,4.063350707292557E-002,-9.376922249794006E-001,-3.036812841892242E-001,-1.631097681820393E-002,4.063350707292557E-002,-9.376922249794006E-001,-3.036812841892242E-001,
9.410000000000000E+008,-2.044053748250008E-002,4.435485228896141E-002,-9.486643075942993E-001,-2.671786546707153E-001,-2.044053748250008E-002,4.435485228896141E-002,-9.486643075942993E-001,-2.671786546707153E-001,
9.493666666666668E+008,-2.226497791707516E-002,5.337128415703774E-002,-9.529221653938294E-001,-2.377525866031647E-001,-2.226497791707516E-002,5.337128415703774E-002,-9.529221653938294E-001,-2.377525866031647E-001,
9.577333333333334E+008,-1.889631152153015E-002,6.273629516363144E-002,-9.590998291969299E-001,-2.244655489921570E-001,-1.889631152153015E-002,6.273629516363144E-002,-9.590998291969299E-001,-2.244655489921570E-001,
9.661000000000000E+008,-1.045745611190796E-002,6.922475248575211E-002,-9.587308764457703E-001,-1.832155883312225E-001,-1.045745611190796E-002,6.922475248575211E-002,-9.587308764457703E-001,-1.832155883312225E-001,
9.744666666666668E+008,1.741834712447599E-004,6.980203092098236E-002,-9.587244391441345E-001,-1.748822480440140E-001,1.741834712447599E-004,6.980203092098236E-002,-9.587244391441345E-001,-1.748822480440140E-001,
9.828333333333334E+008,9.334024973213673E-003,7.077191025018692E-002,-9.747403860092163E-001,-1.548280715942383E-001,9.334024973213673E-003,7.077191025018692E-002,-9.747403860092163E-001,-1.548280715942383E-001,
9.912000000000000E+008,1.973354630172253E-002,6.447739154100418E-002,-9.720716476440430E-001,-1.319563686847687E-001,1.973354630172253E-002,6.447739154100418E-002,-9.720716476440430E-001,-1.319563686847687E-001,
9.995666666666668E+008,2.327796444296837E-002,5.662881210446358E-002,-9.844729304313660E-001,-9.409198909997940E-002,2.327796444296837E-002,5.662881210446358E-002,-9.844729304313660E-001,-9.409198909997940E-002,
1.007933333333333E+009,2.642469480633736E-002,4.753409698605537E-002,-1.001468420028687E+000,-7.913516461849213E-002,2.642469480633736E-002,4.753409698605537E-002,-1.001468420028687E+000,-7.913516461849213E-002,
1.016300000000000E+009,1.974029839038849E-002,4.108884930610657E-002,-9.880520105361939E-001,-5.374418944120407E-002,1.974029839038849E-002,4.108884930610657E-002,-9.880520105361939E-001,-5.374418944120407E-002,
1.024666666666667E+009,1.181314699351788E-002,3.717015683650971E-002,-9.834661483764648E-001,-2.735802717506886E-002,1.181314699351788E-002,3.717015683650971E-002,-9.834661483764648E-001,-2.735802717506886E-002,
1.033033333333333E+009,6.053424440324307E-003,4.157142341136932E-002,-9.901495575904846E-001,-1.345188356935978E-003,6.053424440324307E-003,4.157142341136932E-002,-9.901495575904846E-001,-1.345188356935978E-003,
1.041400000000000E+009,-7.621482945978642E-004,4.631030187010765E-002,-9.901242852210999E-001,2.070687711238861E-002,-7.621482945978642E-004,4.631030187010765E-002,-9.901242852210999E-001,2.070687711238861E-002,
1.049766666666667E+009,1.898704911582172E-003,5.582159757614136E-002,-9.772604107856751E-001,5.536246299743652E-002,1.898704911582172E-003,5.582159757614136E-002,-9.772604107856751E-001,5.536246299743652E-002,
1.058133333333333E+009,6.196656730026007E-003,6.477604061365128E-002,-9.781487584114075E-001,7.820538431406021E-002,6.196656730026007E-003,6.477604061365128E-002,-9.781487584114075E-001,7.820538431406021E-002,
1.066500000000000E+009,1.776769198477268E-002,6.899423897266388E-002,-9.935625195503235E-001,1.112127825617790E-001,1.776769198477268E-002,6.899423897266388E-002,-9.935625195503235E-001,1.112127825617790E-001,
1.074866666666667E+009,3.134712204337120E-002,6.783322244882584E-002,-9.875341057777405E-001,1.325723081827164E-001,3.134712204337120E-002,6.783322244882584E-002,-9.875341057777405E-001,1.325723081827164E-001,
1.083233333333334E+009,4.006054624915123E-002,5.978115648031235E-002,-9.699206948280335E-001,1.527739018201828E-001,4.006054624915123E-002,5.978115648031235E-002,-9.699206948280335E-001,1.527739018201828E-001,
1.091600000000000E+009,4.689934477210045E-002,4.919911921024323E-002,-9.540537595748901E-001,1.717841774225235E-001,4.689934477210045E-002,4.919911921024323E-002,-9.540537595748901E-001,1.717841774225235E-001,
1.099966666666667E+009,4.582475870847702E-002,3.588183596730232E-002,-9.491575956344605E-001,2.099332213401794E-001,4.582475870847702E-002,3.588183596730232E-002,-9.491575956344605E-001,2.099332213401794E-001,
1.108333333333334E+009,3.743678331375122E-002,2.811099775135517E-002,-9.496291875839233E-001,2.188170105218887E-001,3.743678331375122E-002,2.811099775135517E-002,-9.496291875839233E-001,2.188170105218887E-001,
1.116700000000000E+009,2.662498690187931E-002,2.466248907148838E-002,-9.427797198295593E-001,2.525969743728638E-001,2.662498690187931E-002,2.466248907148838E-002,-9.427797198295593E-001,2.525969743728638E-001,
1.125066666666667E+009,1.507436856627464E-002,2.914111874997616E-002,-9.425539374351502E-001,2.696423530578613E-001,1.507436856627464E-002,2.914111874997616E-002,-9.425539374351502E-001,2.696423530578613E-001,
1.133433333333334E+009,6.761344149708748E-003,3.900020942091942E-002,-9.412676692008972E-001,3.131957948207855E-001,6.761344149708748E-003,3.900020942091942E-002,-9.412676692008972E-001,3.131957948207855E-001,
1.141800000000000E+009,4.978559911251068E-003,5.215581506490707E-002,-9.183339476585388E-001,3.284686505794525E-001,4.978559911251068E-003,5.215581506490707E-002,-9.183339476585388E-001,3.284686505794525E-001,
1.150166666666667E+009,1.386996079236269E-002,6.627696007490158E-002,-9.093548655509949E-001,3.296846151351929E-001,1.386996079236269E-002,6.627696007490158E-002,-9.093548655509949E-001,3.296846151351929E-001,
1.158533333333334E+009,2.969777025282383E-002,7.314218580722809E-002,-9.018625617027283E-001,3.688816726207733E-001,2.969777025282383E-002,7.314218580722809E-002,-9.018625617027283E-001,3.688816726207733E-001,
1.166900000000000E+009,4.872584342956543E-002,7.269786298274994E-002,-8.859325051307678E-001,3.891823291778565E-001,4.872584342956543E-002,7.269786298274994E-002,-8.859325051307678E-001,3.891823291778565E-001,
1.175266666666667E+009,6.465902179479599E-002,6.205289438366890E-002,-8.821331262588501E-001,4.180685281753540E-001,6.465902179479599E-002,6.205289438366890E-002,-8.821331262588501E-001,4.180685281753540E-001,
1.183633333333334E+009,7.662585377693176E-002,4.743565246462822E-002,-8.796700835227966E-001,4.295906722545624E-001,7.662585377693176E-002,4.743565246462822E-002,-8.796700835227966E-001,4.295906722545624E-001,
1.192000000000000E+009,7.661835849285126E-002,2.880427241325378E-002,-8.668256402015686E-001,4.519005715847015E-001,7.661835849285126E-002,2.880427241325378E-002,-8.668256402015686E-001,4.519005715847015E-001,
1.200366666666667E+009,6.700100749731064E-002,1.246286183595657E-002,-8.539145588874817E-001,4.742283225059509E-001,6.700100749731064E-002,1.246286183595657E-002,-8.539145588874817E-001,4.742283225059509E-001,
1.208733333333334E+009,5.168238282203674E-002,3.909470047801733E-003,-8.486706018447876E-001,5.163679718971252E-001,5.168238282203674E-002,3.909470047801733E-003,-8.486706018447876E-001,5.163679718971252E-001,
1.217100000000000E+009,3.551158681511879E-002,5.485987756401300E-003,-8.439618349075317E-001,5.274330973625183E-001,3.551158681511879E-002,5.485987756401300E-003,-8.439618349075317E-001,5.274330973625183E-001,
1.225466666666667E+009,2.293031103909016E-002,1.668571494519711E-002,-8.111874461174011E-001,5.510910153388977E-001,2.293031103909016E-002,1.668571494519711E-002,-8.111874461174011E-001,5.510910153388977E-001,
1.233833333333334E+009,1.816134527325630E-002,3.340583667159081E-002,-8.064619302749634E-001,5.629728436470032E-001,1.816134527325630E-002,3.340583667159081E-002,-8.064619302749634E-001,5.629728436470032E-001,
1.242200000000000E+009,2.631115540862083E-002,4.766778275370598E-002,-7.814871668815613E-001,5.964164137840271E-001,2.631115540862083E-002,4.766778275370598E-002,-7.814871668815613E-001,5.964164137840271E-001,
1.250566666666667E+009,3.920748084783554E-002,5.720897763967514E-002,-7.600373625755310E-001,6.014289855957031E-001,3.920748084783554E-002,5.720897763967514E-002,-7.600373625755310E-001,6.014289855957031E-001,
1.258933333333334E+009,5.954291671514511E-002,5.722155794501305E-002,-7.544428706169128E-001,6.232839226722717E-001,5.954291671514511E-002,5.722155794501305E-002,-7.544428706169128E-001,6.232839226722717E-001,
1.267300000000000E+009,7.868957519531250E-002,4.601160436868668E-002,-7.358417510986328E-001,6.375547647476196E-001,7.868957519531250E-002,4.601160436868668E-002,-7.358417510986328E-001,6.375547647476196E-001,
1.275666666666667E+009,8.793894946575165E-002,2.770696394145489E-002,-7.234901785850525E-001,6.459222435951233E-001,8.793894946575165E-002,2.770696394145489E-002,-7.234901785850525E-001,6.459222435951233E-001,
1.284033333333334E+009,8.982723951339722E-002,6.623087450861931E-003,-7.076327800750732E-001,6.876500844955444E-001,8.982723951339722E-002,6.623087450861931E-003,-7.076327800750732E-001,6.876500844955444E-001,
1.292400000000000E+009,7.956234365701675E-002,-1.180843543261290E-002,-6.960921287536621E-001,6.920132040977478E-001,7.956234365701675E-002,-1.180843543261290E-002,-6.960921287536621E-001,6.920132040977478E-001,
1.300766666666667E+009,5.998846888542175E-002,-1.998873427510262E-002,-6.733874678611755E-001,7.154534459114075E-001,5.998846888542175E-002,-1.998873427510262E-002,-6.733874678611755E-001,7.154534459114075E-001,
1.309133333333334E+009,3.953867033123970E-002,-1.811592467129231E-002,-6.489646434783936E-001,7.301578521728516E-001,3.953867033123970E-002,-1.811592467129231E-002,-6.489646434783936E-001,7.301578521728516E-001,
1.317500000000000E+009,2.488614805042744E-002,-5.757378414273262E-003,-6.356079578399658E-001,7.602939009666443E-001,2.488614805042744E-002,-5.757378414273262E-003,-6.356079578399658E-001,7.602939009666443E-001,
1.325866666666667E+009,1.987426914274693E-002,1.147233135998249E-002,-6.181638240814209E-001,7.753880023956299E-001,1.987426914274693E-002,1.147233135998249E-002,-6.181638240814209E-001,7.753880023956299E-001,
1.334233333333334E+009,2.803855575621128E-002,2.925867773592472E-002,-5.994536876678467E-001,7.815164327621460E-001,2.803855575621128E-002,2.925867773592472E-002,-5.994536876678467E-001,7.815164327621460E-001,
1.342600000000000E+009,4.311488941311836E-002,3.810989856719971E-002,-5.809912085533142E-001,7.970041632652283E-001,4.311488941311836E-002,3.810989856719971E-002,-5.809912085533142E-001,7.970041632652283E-001,
1.350966666666667E+009,6.295524537563324E-002,3.491973131895065E-002,-5.560260415077210E-001,8.106097579002380E-001,6.295524537563324E-002,3.491973131895065E-002,-5.560260415077210E-001,8.106097579002380E-001,
1.359333333333334E+009,7.759543508291245E-002,2.116240933537483E-002,-5.420824885368347E-001,8.094709515571594E-001,7.759543508291245E-002,2.116240933537483E-002,-5.420824885368347E-001,8.094709515571594E-001,
1.367700000000000E+009,8.343402296304703E-002,9.714373154565692E-004,-5.090962052345276E-001,8.292348980903626E-001,8.343402296304703E-002,9.714373154565692E-004,-5.090962052345276E-001,8.292348980903626E-001,
1.376066666666667E+009,7.930023223161697E-002,-2.109571732580662E-002,-4.946314394474030E-001,8.377005457878113E-001,7.930023223161697E-002,-2.109571732580662E-002,-4.946314394474030E-001,8.377005457878113E-001,
1.384433333333334E+009,6.265877187252045E-002,-3.621930256485939E-002,-4.795447587966919E-001,8.700818419456482E-001,6.265877187252045E-002,-3.621930256485939E-002,-4.795447587966919E-001,8.700818419456482E-001,
1.392800000000000E+009,4.226251319050789E-002,-3.827906399965286E-002,-4.579004943370819E-001,8.780280947685242E-001,4.226251319050789E-002,-3.827906399965286E-002,-4.579004943370819E-001,8.780280947685242E-001,
1.401166666666667E+009,2.185528725385666E-002,-3.057455457746983E-002,-4.311923086643219E-001,8.854625225067139E-001,2.185528725385666E-002,-3.057455457746983E-002,-4.311923086643219E-001,8.854625225067139E-001,
1.409533333333334E+009,8.694056421518326E-003,-1.246632356196642E-002,-4.024486839771271E-001,8.998481631278992E-001,8.694056421518326E-003,-1.246632356196642E-002,-4.024486839771271E-001,8.998481631278992E-001,
1.417900000000000E+009,9.310540743172169E-003,1.107653509825468E-002,-3.834050297737122E-001,8.966955542564392E-001,9.310540743172169E-003,1.107653509825468E-002,-3.834050297737122E-001,8.966955542564392E-001,
1.426266666666667E+009,1.989852450788021E-002,2.821782045066357E-002,-3.465697169303894E-001,9.224728345870972E-001,1.989852450788021E-002,2.821782045066357E-002,-3.465697169303894E-001,9.224728345870972E-001,
1.434633333333334E+009,4.005912318825722E-002,3.652564436197281E-002,-3.368435204029083E-001,9.174923300743103E-001,4.005912318825722E-002,3.652564436197281E-002,-3.368435204029083E-001,9.174923300743103E-001,
1.443000000000000E+009,5.993136391043663E-002,3.373427316546440E-002,-3.130353689193726E-001,9.248912334442139E-001,5.993136391043663E-002,3.373427316546440E-002,-3.130353689193726E-001,9.248912334442139E-001,
1.451366666666667E+009,7.571275532245636E-002,1.797073334455490E-002,-2.875800728797913E-001,9.250229001045227E-001,7.571275532245636E-002,1.797073334455490E-002,-2.875800728797913E-001,9.250229001045227E-001,
1.459733333333334E+009,8.197914808988571E-002,-2.345436485484242E-003,-2.614862620830536E-001,9.523948431015015E-001,8.197914808988571E-002,-2.345436485484242E-003,-2.614862620830536E-001,9.523948431015015E-001,
