% Version 1.00
%
%freq[Hz],re:Trc1_S11,im:Trc1_S11,re:Trc2_S21,im:Trc2_S21,re:Trc3_S11,im:Trc3_S11,re:Trc4_S21,im:Trc4_S21,
6.900000000000000E+008,-4.390925541520119E-002,3.564662113785744E-002,-4.984378516674042E-001,-8.521726727485657E-001,-4.390925541520119E-002,3.564662113785744E-002,-4.984378516674042E-001,-8.521726727485657E-001,
6.983666666666666E+008,-3.596638515591621E-002,3.619237989187241E-002,-5.238419771194458E-001,-8.415948152542114E-001,-3.596638515591621E-002,3.619237989187241E-002,-5.238419771194458E-001,-8.415948152542114E-001,
7.067333333333334E+008,-3.001295775175095E-002,3.174354135990143E-002,-5.464091897010803E-001,-8.158603310585022E-001,-3.001295775175095E-002,3.174354135990143E-002,-5.464091897010803E-001,-8.158603310585022E-001,
7.151000000000000E+008,-2.956260740756989E-002,2.403335273265839E-002,-5.813366174697876E-001,-8.138554692268372E-001,-2.956260740756989E-002,2.403335273265839E-002,-5.813366174697876E-001,-8.138554692268372E-001,
7.234666666666666E+008,-3.137224540114403E-002,1.862476579844952E-002,-5.945547223091126E-001,-7.984938025474548E-001,-3.137224540114403E-002,1.862476579844952E-002,-5.945547223091126E-001,-7.984938025474548E-001,
7.318333333333334E+008,-3.867559507489204E-002,1.603871211409569E-002,-6.118867993354797E-001,-7.815722227096558E-001,-3.867559507489204E-002,1.603871211409569E-002,-6.118867993354797E-001,-7.815722227096558E-001,
7.402000000000000E+008,-4.486637935042381E-002,1.759394258260727E-002,-6.224682927131653E-001,-7.565412521362305E-001,-4.486637935042381E-002,1.759394258260727E-002,-6.224682927131653E-001,-7.565412521362305E-001,
7.485666666666666E+008,-5.021453276276588E-002,2.424961142241955E-002,-6.524039506912231E-001,-7.437122464179993E-001,-5.021453276276588E-002,2.424961142241955E-002,-6.524039506912231E-001,-7.437122464179993E-001,
7.569333333333334E+008,-5.413662269711494E-002,3.376775979995728E-002,-6.707601547241211E-001,-7.303643822669983E-001,-5.413662269711494E-002,3.376775979995728E-002,-6.707601547241211E-001,-7.303643822669983E-001,
7.653000000000000E+008,-4.885464161634445E-002,4.258306324481964E-002,-6.784656643867493E-001,-7.111737728118897E-001,-4.885464161634445E-002,4.258306324481964E-002,-6.784656643867493E-001,-7.111737728118897E-001,
7.736666666666666E+008,-4.261901974678040E-002,4.923401400446892E-002,-6.914521455764771E-001,-7.076258063316345E-001,-4.261901974678040E-002,4.923401400446892E-002,-6.914521455764771E-001,-7.076258063316345E-001,
7.820333333333334E+008,-3.401905670762062E-002,5.330361425876617E-002,-7.250199913978577E-001,-6.794750094413757E-001,-3.401905670762062E-002,5.330361425876617E-002,-7.250199913978577E-001,-6.794750094413757E-001,
7.904000000000000E+008,-2.415654622018337E-002,5.226304754614830E-002,-7.341354489326477E-001,-6.608480811119080E-001,-2.415654622018337E-002,5.226304754614830E-002,-7.341354489326477E-001,-6.608480811119080E-001,
7.987666666666666E+008,-1.996126398444176E-002,4.695209488272667E-002,-7.393617630004883E-001,-6.449018716812134E-001,-1.996126398444176E-002,4.695209488272667E-002,-7.393617630004883E-001,-6.449018716812134E-001,
8.071333333333334E+008,-1.797064393758774E-002,4.042526707053185E-002,-7.658172845840454E-001,-6.132999658584595E-001,-1.797064393758774E-002,4.042526707053185E-002,-7.658172845840454E-001,-6.132999658584595E-001,
8.155000000000000E+008,-2.112550474703312E-002,3.332152590155602E-002,-7.924317121505737E-001,-6.022585630416870E-001,-2.112550474703312E-002,3.332152590155602E-002,-7.924317121505737E-001,-6.022585630416870E-001,
8.238666666666666E+008,-2.787327021360397E-002,3.114974871277809E-002,-7.986427545547485E-001,-5.788671374320984E-001,-2.787327021360397E-002,3.114974871277809E-002,-7.986427545547485E-001,-5.788671374320984E-001,
8.322333333333334E+008,-3.359356150031090E-002,3.233664110302925E-002,-8.082104921340942E-001,-5.610438585281372E-001,-3.359356150031090E-002,3.233664110302925E-002,-8.082104921340942E-001,-5.610438585281372E-001,
8.406000000000000E+008,-3.836989030241966E-002,3.538649156689644E-002,-8.201161026954651E-001,-5.386893749237061E-001,-3.836989030241966E-002,3.538649156689644E-002,-8.201161026954651E-001,-5.386893749237061E-001,
8.489666666666668E+008,-3.998717293143272E-002,4.628881439566612E-002,-8.320688009262085E-001,-5.096135735511780E-001,-3.998717293143272E-002,4.628881439566612E-002,-8.320688009262085E-001,-5.096135735511780E-001,
8.573333333333334E+008,-3.794656693935394E-002,5.388826131820679E-002,-8.341116905212402E-001,-4.793456494808197E-001,-3.794656693935394E-002,5.388826131820679E-002,-8.341116905212402E-001,-4.793456494808197E-001,
8.657000000000000E+008,-3.260493278503418E-002,6.143536418676376E-002,-8.619435429573059E-001,-4.839643836021423E-001,-3.260493278503418E-002,6.143536418676376E-002,-8.619435429573059E-001,-4.839643836021423E-001,
8.740666666666668E+008,-2.352587319910526E-002,6.638684123754501E-002,-8.677381873130798E-001,-4.590214788913727E-001,-2.352587319910526E-002,6.638684123754501E-002,-8.677381873130798E-001,-4.590214788913727E-001,
8.824333333333334E+008,-1.539859082549810E-002,6.776230782270432E-002,-8.861247301101685E-001,-4.347121417522430E-001,-1.539859082549810E-002,6.776230782270432E-002,-8.861247301101685E-001,-4.347121417522430E-001,
8.908000000000000E+008,-7.448320277035236E-003,6.423338502645493E-002,-8.997656106948853E-001,-4.173658490180969E-001,-7.448320277035236E-003,6.423338502645493E-002,-8.997656106948853E-001,-4.173658490180969E-001,
8.991666666666668E+008,-2.204735297709703E-003,5.824775993824005E-002,-8.996720314025879E-001,-3.903674483299255E-001,-2.204735297709703E-003,5.824775993824005E-002,-8.996720314025879E-001,-3.903674483299255E-001,
9.075333333333334E+008,-2.084451494738460E-003,5.068764090538025E-002,-9.139994978904724E-001,-3.653023540973663E-001,-2.084451494738460E-003,5.068764090538025E-002,-9.139994978904724E-001,-3.653023540973663E-001,
9.159000000000000E+008,-5.041085183620453E-003,4.495299980044365E-002,-9.354183077812195E-001,-3.403989672660828E-001,-5.041085183620453E-003,4.495299980044365E-002,-9.354183077812195E-001,-3.403989672660828E-001,
9.242666666666668E+008,-1.193748041987419E-002,4.509557038545609E-002,-9.266608953475952E-001,-3.186817169189453E-001,-1.193748041987419E-002,4.509557038545609E-002,-9.266608953475952E-001,-3.186817169189453E-001,
9.326333333333334E+008,-1.705955713987351E-002,4.719166830182076E-002,-9.429830908775330E-001,-3.048099577426910E-001,-1.705955713987351E-002,4.719166830182076E-002,-9.429830908775330E-001,-3.048099577426910E-001,
9.410000000000000E+008,-2.110522799193859E-002,5.130317434668541E-002,-9.532209634780884E-001,-2.691296339035034E-001,-2.110522799193859E-002,5.130317434668541E-002,-9.532209634780884E-001,-2.691296339035034E-001,
9.493666666666668E+008,-2.255227789282799E-002,6.024092808365822E-002,-9.578067064285278E-001,-2.386078685522080E-001,-2.255227789282799E-002,6.024092808365822E-002,-9.578067064285278E-001,-2.386078685522080E-001,
9.577333333333334E+008,-1.886362582445145E-002,6.958957016468048E-002,-9.640498161315918E-001,-2.251544892787933E-001,-1.886362582445145E-002,6.958957016468048E-002,-9.640498161315918E-001,-2.251544892787933E-001,
9.661000000000000E+008,-1.006491295993328E-002,7.587798684835434E-002,-9.654878973960877E-001,-1.833403557538986E-001,-1.006491295993328E-002,7.587798684835434E-002,-9.654878973960877E-001,-1.833403557538986E-001,
9.744666666666668E+008,6.038187420926988E-004,7.590419799089432E-002,-9.630576372146606E-001,-1.730423420667648E-001,6.038187420926988E-004,7.590419799089432E-002,-9.630576372146606E-001,-1.730423420667648E-001,
9.828333333333334E+008,9.633283130824566E-003,7.669750601053238E-002,-9.786618351936340E-001,-1.533386856317520E-001,9.633283130824566E-003,7.669750601053238E-002,-9.786618351936340E-001,-1.533386856317520E-001,
9.912000000000000E+008,1.983322948217392E-002,7.019819319248200E-002,-9.760404825210571E-001,-1.313886493444443E-001,1.983322948217392E-002,7.019819319248200E-002,-9.760404825210571E-001,-1.313886493444443E-001,
9.995666666666668E+008,2.324164472520351E-002,6.247515976428986E-002,-9.888482093811035E-001,-9.467466920614243E-002,2.324164472520351E-002,6.247515976428986E-002,-9.888482093811035E-001,-9.467466920614243E-002,
1.007933333333333E+009,2.648587711155415E-002,5.311003699898720E-002,-1.002104043960571E+000,-7.709124684333801E-002,2.648587711155415E-002,5.311003699898720E-002,-1.002104043960571E+000,-7.709124684333801E-002,
1.016300000000000E+009,2.015552483499050E-002,4.733625799417496E-002,-9.886341691017151E-001,-5.094071105122566E-002,2.015552483499050E-002,4.733625799417496E-002,-9.886341691017151E-001,-5.094071105122566E-002,
1.024666666666667E+009,1.236360240727663E-002,4.369508847594261E-002,-9.844191074371338E-001,-2.517695352435112E-002,1.236360240727663E-002,4.369508847594261E-002,-9.844191074371338E-001,-2.517695352435112E-002,
1.033033333333333E+009,7.297469303011894E-003,4.838778823614121E-002,-9.910774230957031E-001,1.251271227374673E-003,7.297469303011894E-003,4.838778823614121E-002,-9.910774230957031E-001,1.251271227374673E-003,
1.041400000000000E+009,6.360699771903455E-004,5.323768407106400E-002,-9.909555315971375E-001,2.210105024278164E-002,6.360699771903455E-004,5.323768407106400E-002,-9.909555315971375E-001,2.210105024278164E-002,
1.049766666666667E+009,3.745053661987186E-003,6.247023120522499E-002,-9.769054055213928E-001,5.775607377290726E-002,3.745053661987186E-003,6.247023120522499E-002,-9.769054055213928E-001,5.775607377290726E-002,
1.058133333333333E+009,7.987271994352341E-003,7.111194729804993E-002,-9.787378907203674E-001,7.983177900314331E-002,7.987271994352341E-003,7.111194729804993E-002,-9.787378907203674E-001,7.983177900314331E-002,
1.066500000000000E+009,1.911929622292519E-002,7.495342195034027E-002,-9.933070540428162E-001,1.137054041028023E-001,1.911929622292519E-002,7.495342195034027E-002,-9.933070540428162E-001,1.137054041028023E-001,
1.074866666666667E+009,3.244838118553162E-002,7.341700792312622E-002,-9.873459935188294E-001,1.335501968860626E-001,3.244838118553162E-002,7.341700792312622E-002,-9.873459935188294E-001,1.335501968860626E-001,
1.083233333333334E+009,4.092440381646156E-002,6.520698219537735E-002,-9.707879424095154E-001,1.546368896961212E-001,4.092440381646156E-002,6.520698219537735E-002,-9.707879424095154E-001,1.546368896961212E-001,
1.091600000000000E+009,4.720334336161614E-002,5.471440032124519E-002,-9.534907341003418E-001,1.743247956037521E-001,4.720334336161614E-002,5.471440032124519E-002,-9.534907341003418E-001,1.743247956037521E-001,
1.099966666666667E+009,4.626036062836647E-002,4.148038476705551E-002,-9.489808082580566E-001,2.123862653970718E-001,4.626036062836647E-002,4.148038476705551E-002,-9.489808082580566E-001,2.123862653970718E-001,
1.108333333333334E+009,3.822442889213562E-002,3.381593525409699E-002,-9.488283395767212E-001,2.203603684902191E-001,3.822442889213562E-002,3.381593525409699E-002,-9.488283395767212E-001,2.203603684902191E-001,
1.116700000000000E+009,2.790828794240952E-002,3.077009506523609E-002,-9.417466521263123E-001,2.539097070693970E-001,2.790828794240952E-002,3.077009506523609E-002,-9.417466521263123E-001,2.539097070693970E-001,
1.125066666666667E+009,1.690923236310482E-002,3.542150929570198E-002,-9.426416754722595E-001,2.704902887344360E-001,1.690923236310482E-002,3.542150929570198E-002,-9.426416754722595E-001,2.704902887344360E-001,
1.133433333333334E+009,9.194771759212017E-003,4.510730877518654E-002,-9.402337670326233E-001,3.151261210441589E-001,9.194771759212017E-003,4.510730877518654E-002,-9.402337670326233E-001,3.151261210441589E-001,
1.141800000000000E+009,7.871301844716072E-003,5.824273079633713E-002,-9.173825979232788E-001,3.298712372779846E-001,7.871301844716072E-003,5.824273079633713E-002,-9.173825979232788E-001,3.298712372779846E-001,
1.150166666666667E+009,1.662060432136059E-002,7.209550589323044E-002,-9.086558222770691E-001,3.304771184921265E-001,1.662060432136059E-002,7.209550589323044E-002,-9.086558222770691E-001,3.304771184921265E-001,
1.158533333333334E+009,3.213209658861160E-002,7.872460037469864E-002,-9.013919830322266E-001,3.709479868412018E-001,3.213209658861160E-002,7.872460037469864E-002,-9.013919830322266E-001,3.709479868412018E-001,
1.166900000000000E+009,5.088137462735176E-002,7.836264371871948E-002,-8.848823308944702E-001,3.911317288875580E-001,5.088137462735176E-002,7.836264371871948E-002,-8.848823308944702E-001,3.911317288875580E-001,
1.175266666666667E+009,6.642740219831467E-002,6.745732575654984E-002,-8.794627189636231E-001,4.203695356845856E-001,6.642740219831467E-002,6.745732575654984E-002,-8.794627189636231E-001,4.203695356845856E-001,
1.183633333333334E+009,7.802989333868027E-002,5.275445431470871E-002,-8.774814605712891E-001,4.322823882102966E-001,7.802989333868027E-002,5.275445431470871E-002,-8.774814605712891E-001,4.322823882102966E-001,
1.192000000000000E+009,7.792197912931442E-002,3.427657112479210E-002,-8.653146028518677E-001,4.547615349292755E-001,7.792197912931442E-002,3.427657112479210E-002,-8.653146028518677E-001,4.547615349292755E-001,
1.200366666666667E+009,6.859214603900909E-002,1.811348274350166E-002,-8.526164889335632E-001,4.758784174919128E-001,6.859214603900909E-002,1.811348274350166E-002,-8.526164889335632E-001,4.758784174919128E-001,
1.208733333333334E+009,5.393766611814499E-002,9.665629826486111E-003,-8.459579348564148E-001,5.177545547485352E-001,5.393766611814499E-002,9.665629826486111E-003,-8.459579348564148E-001,5.177545547485352E-001,
1.217100000000000E+009,3.825170174241066E-002,1.114061288535595E-002,-8.418151140213013E-001,5.275860428810120E-001,3.825170174241066E-002,1.114061288535595E-002,-8.418151140213013E-001,5.275860428810120E-001,
1.225466666666667E+009,2.605038881301880E-002,2.204154245555401E-002,-8.096233606338501E-001,5.521713495254517E-001,2.605038881301880E-002,2.204154245555401E-002,-8.096233606338501E-001,5.521713495254517E-001,
1.233833333333334E+009,2.165384218096733E-002,3.847895935177803E-002,-8.048040270805359E-001,5.634812116622925E-001,2.165384218096733E-002,3.847895935177803E-002,-8.048040270805359E-001,5.634812116622925E-001,
1.242200000000000E+009,2.984720654785633E-002,5.255422368645668E-002,-7.795059680938721E-001,5.965965390205383E-001,2.984720654785633E-002,5.255422368645668E-002,-7.795059680938721E-001,5.965965390205383E-001,
1.250566666666667E+009,4.256130382418633E-002,6.228158995509148E-002,-7.582829594612122E-001,6.023074984550476E-001,4.256130382418633E-002,6.228158995509148E-002,-7.582829594612122E-001,6.023074984550476E-001,
1.258933333333334E+009,6.257075816392899E-002,6.210237368941307E-002,-7.529370784759522E-001,6.242880821228027E-001,6.257075816392899E-002,6.210237368941307E-002,-7.529370784759522E-001,6.242880821228027E-001,
1.267300000000000E+009,8.149663358926773E-002,5.114445835351944E-002,-7.342307567596436E-001,6.386270523071289E-001,8.149663358926773E-002,5.114445835351944E-002,-7.342307567596436E-001,6.386270523071289E-001,
1.275666666666667E+009,9.030511975288391E-002,3.312220424413681E-002,-7.218238115310669E-001,6.466335654258728E-001,9.030511975288391E-002,3.312220424413681E-002,-7.218238115310669E-001,6.466335654258728E-001,
1.284033333333334E+009,9.233570098876953E-002,1.216468028724194E-002,-7.057781815528870E-001,6.887891292572022E-001,9.233570098876953E-002,1.216468028724194E-002,-7.057781815528870E-001,6.887891292572022E-001,
1.292400000000000E+009,8.212069422006607E-002,-6.335513666272163E-003,-6.936172842979431E-001,6.921785473823547E-001,8.212069422006607E-002,-6.335513666272163E-003,-6.936172842979431E-001,6.921785473823547E-001,
1.300766666666667E+009,6.299898028373718E-002,-1.467536110430956E-002,-6.713916063308716E-001,7.161645293235779E-001,6.299898028373718E-002,-1.467536110430956E-002,-6.713916063308716E-001,7.161645293235779E-001,
1.309133333333334E+009,4.304987937211990E-002,-1.313345227390528E-002,-6.468437910079956E-001,7.305742502212524E-001,4.304987937211990E-002,-1.313345227390528E-002,-6.468437910079956E-001,7.305742502212524E-001,
1.317500000000000E+009,2.873879671096802E-002,-1.133569516241550E-003,-6.343667507171631E-001,7.609271407127380E-001,2.873879671096802E-002,-1.133569516241550E-003,-6.343667507171631E-001,7.609271407127380E-001,
1.325866666666667E+009,2.408910728991032E-002,1.578842289745808E-002,-6.146851181983948E-001,7.758254408836365E-001,2.408910728991032E-002,1.578842289745808E-002,-6.146851181983948E-001,7.758254408836365E-001,
1.334233333333334E+009,3.207026794552803E-002,3.339868038892746E-002,-5.965087413787842E-001,7.816253304481506E-001,3.207026794552803E-002,3.339868038892746E-002,-5.965087413787842E-001,7.816253304481506E-001,
1.342600000000000E+009,4.725208133459091E-002,4.230035096406937E-002,-5.791503190994263E-001,7.989507317543030E-001,4.725208133459091E-002,4.230035096406937E-002,-5.791503190994263E-001,7.989507317543030E-001,
1.350966666666667E+009,6.701547652482987E-002,3.939777240157127E-002,-5.529186129570007E-001,8.110064864158630E-001,6.701547652482987E-002,3.939777240157127E-002,-5.529186129570007E-001,8.110064864158630E-001,
1.359333333333334E+009,8.154240250587463E-002,2.576969377696514E-002,-5.400553345680237E-001,8.105247020721436E-001,8.154240250587463E-002,2.576969377696514E-002,-5.400553345680237E-001,8.105247020721436E-001,
1.367700000000000E+009,8.715617656707764E-002,5.958133842796087E-003,-5.064995288848877E-001,8.294415473937988E-001,8.715617656707764E-002,5.958133842796087E-003,-5.064995288848877E-001,8.294415473937988E-001,
1.376066666666667E+009,8.325941860675812E-002,-1.614877581596375E-002,-4.913494884967804E-001,8.388954401016235E-001,8.325941860675812E-002,-1.614877581596375E-002,-4.913494884967804E-001,8.388954401016235E-001,
1.384433333333334E+009,6.633011251688004E-002,-3.140965849161148E-002,-4.763014912605286E-001,8.693130612373352E-001,6.633011251688004E-002,-3.140965849161148E-002,-4.763014912605286E-001,8.693130612373352E-001,
1.392800000000000E+009,4.597860202193260E-002,-3.374467045068741E-002,-4.553227424621582E-001,8.777285218238831E-001,4.597860202193260E-002,-3.374467045068741E-002,-4.553227424621582E-001,8.777285218238831E-001,
1.401166666666667E+009,2.586324326694012E-002,-2.634502388536930E-002,-4.282660484313965E-001,8.847602009773254E-001,2.586324326694012E-002,-2.634502388536930E-002,-4.282660484313965E-001,8.847602009773254E-001,
1.409533333333334E+009,1.280332077294588E-002,-8.832331746816635E-003,-3.992374539375305E-001,8.994268774986267E-001,1.280332077294588E-002,-8.832331746816635E-003,-3.992374539375305E-001,8.994268774986267E-001,
1.417900000000000E+009,1.356482598930597E-002,1.444351673126221E-002,-3.799480497837067E-001,8.952059149742127E-001,1.356482598930597E-002,1.444351673126221E-002,-3.799480497837067E-001,8.952059149742127E-001,
1.426266666666667E+009,2.417548559606075E-002,3.153561055660248E-002,-3.433182537555695E-001,9.219354987144470E-001,2.417548559606075E-002,3.153561055660248E-002,-3.433182537555695E-001,9.219354987144470E-001,
1.434633333333334E+009,4.443618655204773E-002,4.008198902010918E-002,-3.337904214859009E-001,9.159357547760010E-001,4.443618655204773E-002,4.008198902010918E-002,-3.337904214859009E-001,9.159357547760010E-001,
1.443000000000000E+009,6.465671211481094E-002,3.750431165099144E-002,-3.094778060913086E-001,9.236183166503906E-001,6.465671211481094E-002,3.750431165099144E-002,-3.094778060913086E-001,9.236183166503906E-001,
1.451366666666667E+009,8.044549077749252E-002,2.201589569449425E-002,-2.835734784603119E-001,9.244183301925659E-001,8.044549077749252E-002,2.201589569449425E-002,-2.835734784603119E-001,9.244183301925659E-001,
1.459733333333334E+009,8.689521998167038E-002,1.752893789671361E-003,-2.583974897861481E-001,9.509328007698059E-001,8.689521998167038E-002,1.752893789671361E-003,-2.583974897861481E-001,9.509328007698059E-001,
