% Version 1.00
%
%freq[Hz],re:Trc1_S11,im:Trc1_S11,re:Trc2_S21,im:Trc2_S21,re:Trc3_S11,im:Trc3_S11,re:Trc4_S21,im:Trc4_S21,
6.900000000000000E+008,-4.905542358756065E-002,4.029894992709160E-002,-5.053069591522217E-001,-8.509397506713867E-001,-4.905542358756065E-002,4.029894992709160E-002,-5.053069591522217E-001,-8.509397506713867E-001,
6.983666666666666E+008,-4.081628844141960E-002,4.078581929206848E-002,-5.318518280982971E-001,-8.399701714515686E-001,-4.081628844141960E-002,4.078581929206848E-002,-5.318518280982971E-001,-8.399701714515686E-001,
7.067333333333334E+008,-3.512890264391899E-002,3.615295141935349E-002,-5.545940995216370E-001,-8.138865828514099E-001,-3.512890264391899E-002,3.615295141935349E-002,-5.545940995216370E-001,-8.138865828514099E-001,
7.151000000000000E+008,-3.481080010533333E-002,2.869018912315369E-002,-5.890423655509949E-001,-8.117408156394959E-001,-3.481080010533333E-002,2.869018912315369E-002,-5.890423655509949E-001,-8.117408156394959E-001,
7.234666666666666E+008,-3.700760006904602E-002,2.359771542251110E-002,-6.027625203132629E-001,-7.957014441490173E-001,-3.700760006904602E-002,2.359771542251110E-002,-6.027625203132629E-001,-7.957014441490173E-001,
7.318333333333334E+008,-4.451262205839157E-002,2.151165530085564E-002,-6.210285425186157E-001,-7.782516479492188E-001,-4.451262205839157E-002,2.151165530085564E-002,-6.210285425186157E-001,-7.782516479492188E-001,
7.402000000000000E+008,-5.079424381256104E-002,2.363217994570732E-002,-6.306536197662354E-001,-7.535915374755859E-001,-5.079424381256104E-002,2.363217994570732E-002,-6.306536197662354E-001,-7.535915374755859E-001,
7.485666666666666E+008,-5.604469776153565E-002,3.080850467085838E-002,-6.614162325859070E-001,-7.400218248367310E-001,-5.604469776153565E-002,3.080850467085838E-002,-6.614162325859070E-001,-7.400218248367310E-001,
7.569333333333334E+008,-5.958873778581619E-002,4.067841544747353E-002,-6.790287494659424E-001,-7.269490361213684E-001,-5.958873778581619E-002,4.067841544747353E-002,-6.790287494659424E-001,-7.269490361213684E-001,
7.653000000000000E+008,-5.399983376264572E-002,4.970344901084900E-002,-6.864638328552246E-001,-7.068817019462585E-001,-5.399983376264572E-002,4.970344901084900E-002,-6.864638328552246E-001,-7.068817019462585E-001,
7.736666666666666E+008,-4.734206944704056E-002,5.629259347915649E-002,-7.004684209823608E-001,-7.035074234008789E-001,-4.734206944704056E-002,5.629259347915649E-002,-7.004684209823608E-001,-7.035074234008789E-001,
7.820333333333334E+008,-3.833605721592903E-002,6.031266227364540E-002,-7.328376770019531E-001,-6.749233603477478E-001,-3.833605721592903E-002,6.031266227364540E-002,-7.328376770019531E-001,-6.749233603477478E-001,
7.904000000000000E+008,-2.825620770454407E-002,5.921444669365883E-002,-7.421381473541260E-001,-6.561996340751648E-001,-2.825620770454407E-002,5.921444669365883E-002,-7.421381473541260E-001,-6.561996340751648E-001,
7.987666666666666E+008,-2.385267056524754E-002,5.406430363655090E-002,-7.473938465118408E-001,-6.406615972518921E-001,-2.385267056524754E-002,5.406430363655090E-002,-7.473938465118408E-001,-6.406615972518921E-001,
8.071333333333334E+008,-2.196544036269188E-002,4.767970368266106E-002,-7.738543152809143E-001,-6.082116365432739E-001,-2.196544036269188E-002,4.767970368266106E-002,-7.738543152809143E-001,-6.082116365432739E-001,
8.155000000000000E+008,-2.494867146015167E-002,4.073578491806984E-002,-8.003593683242798E-001,-5.967208743095398E-001,-2.494867146015167E-002,4.073578491806984E-002,-8.003593683242798E-001,-5.967208743095398E-001,
8.238666666666666E+008,-3.169391304254532E-002,3.887727484107018E-002,-8.069877624511719E-001,-5.732283592224121E-001,-3.169391304254532E-002,3.887727484107018E-002,-8.069877624511719E-001,-5.732283592224121E-001,
8.322333333333334E+008,-3.729769214987755E-002,4.043844714760780E-002,-8.162431716918945E-001,-5.560295581817627E-001,-3.729769214987755E-002,4.043844714760780E-002,-8.162431716918945E-001,-5.560295581817627E-001,
8.406000000000000E+008,-4.199401289224625E-002,4.379088804125786E-002,-8.284990191459656E-001,-5.327789187431335E-001,-4.199401289224625E-002,4.379088804125786E-002,-8.284990191459656E-001,-5.327789187431335E-001,
8.489666666666668E+008,-4.356951639056206E-002,5.503008514642716E-002,-8.395480513572693E-001,-5.033339262008667E-001,-4.356951639056206E-002,5.503008514642716E-002,-8.395480513572693E-001,-5.033339262008667E-001,
8.573333333333334E+008,-4.122548922896385E-002,6.287508457899094E-002,-8.416727781295776E-001,-4.723596870899200E-001,-4.122548922896385E-002,6.287508457899094E-002,-8.416727781295776E-001,-4.723596870899200E-001,
8.657000000000000E+008,-3.573000803589821E-002,7.034289091825485E-002,-8.697249293327332E-001,-4.767192602157593E-001,-3.573000803589821E-002,7.034289091825485E-002,-8.697249293327332E-001,-4.767192602157593E-001,
8.740666666666668E+008,-2.633037231862545E-002,7.542385160923004E-002,-8.753250241279602E-001,-4.518188536167145E-001,-2.633037231862545E-002,7.542385160923004E-002,-8.753250241279602E-001,-4.518188536167145E-001,
8.824333333333334E+008,-1.796947047114372E-002,7.689713686704636E-002,-8.946084976196289E-001,-4.268973767757416E-001,-1.796947047114372E-002,7.689713686704636E-002,-8.946084976196289E-001,-4.268973767757416E-001,
8.908000000000000E+008,-9.712070226669312E-003,7.340390235185623E-002,-9.079157710075378E-001,-4.094895422458649E-001,-9.712070226669312E-003,7.340390235185623E-002,-9.079157710075378E-001,-4.094895422458649E-001,
8.991666666666668E+008,-4.091998096555471E-003,6.748155504465103E-002,-9.077631831169128E-001,-3.819223940372467E-001,-4.091998096555471E-003,6.748155504465103E-002,-9.077631831169128E-001,-3.819223940372467E-001,
9.075333333333334E+008,-3.618577029556036E-003,6.007204577326775E-002,-9.218698143959045E-001,-3.567289412021637E-001,-3.618577029556036E-003,6.007204577326775E-002,-9.218698143959045E-001,-3.567289412021637E-001,
9.159000000000000E+008,-6.485453806817532E-003,5.432941392064095E-002,-9.430838823318481E-001,-3.311616182327271E-001,-6.485453806817532E-003,5.432941392064095E-002,-9.430838823318481E-001,-3.311616182327271E-001,
9.242666666666668E+008,-1.321808900684118E-002,5.457797646522522E-002,-9.343251585960388E-001,-3.093694746494293E-001,-1.321808900684118E-002,5.457797646522522E-002,-9.343251585960388E-001,-3.093694746494293E-001,
9.326333333333334E+008,-1.820073649287224E-002,5.694554373621941E-002,-9.501562714576721E-001,-2.946207225322723E-001,-1.820073649287224E-002,5.694554373621941E-002,-9.501562714576721E-001,-2.946207225322723E-001,
9.410000000000000E+008,-2.209971845149994E-002,6.130422279238701E-002,-9.604238271713257E-001,-2.594746053218842E-001,-2.209971845149994E-002,6.130422279238701E-002,-9.604238271713257E-001,-2.594746053218842E-001,
9.493666666666668E+008,-2.335518971085548E-002,7.056731730699539E-002,-9.647924900054932E-001,-2.280599921941757E-001,-2.335518971085548E-002,7.056731730699539E-002,-9.647924900054932E-001,-2.280599921941757E-001,
9.577333333333334E+008,-1.949553564190865E-002,8.030571043491364E-002,-9.706565737724304E-001,-2.147118300199509E-001,-1.949553564190865E-002,8.030571043491364E-002,-9.706565737724304E-001,-2.147118300199509E-001,
9.661000000000000E+008,-1.045681908726692E-002,8.684664219617844E-002,-9.714011549949646E-001,-1.718260496854782E-001,-1.045681908726692E-002,8.684664219617844E-002,-9.714011549949646E-001,-1.718260496854782E-001,
9.744666666666668E+008,6.867091287858784E-004,8.676066994667053E-002,-9.690937399864197E-001,-1.615924984216690E-001,6.867091287858784E-004,8.676066994667053E-002,-9.690937399864197E-001,-1.615924984216690E-001,
9.828333333333334E+008,1.021536160260439E-002,8.781583607196808E-002,-9.846025705337524E-001,-1.421237587928772E-001,1.021536160260439E-002,8.781583607196808E-002,-9.846025705337524E-001,-1.421237587928772E-001,
9.912000000000000E+008,2.088584564626217E-002,8.117923885583878E-002,-9.817487597465515E-001,-1.197277456521988E-001,2.088584564626217E-002,8.117923885583878E-002,-9.817487597465515E-001,-1.197277456521988E-001,
9.995666666666668E+008,2.477489970624447E-002,7.341884821653366E-002,-9.934197068214417E-001,-8.293704688549042E-002,2.477489970624447E-002,7.341884821653366E-002,-9.934197068214417E-001,-8.293704688549042E-002,
1.007933333333333E+009,2.838515117764473E-002,6.382419914007187E-002,-1.007488727569580E+000,-6.569464504718781E-002,2.838515117764473E-002,6.382419914007187E-002,-1.007488727569580E+000,-6.569464504718781E-002,
1.016300000000000E+009,2.228642068803310E-002,5.781929567456245E-002,-9.938727021217346E-001,-3.915582969784737E-002,2.228642068803310E-002,5.781929567456245E-002,-9.938727021217346E-001,-3.915582969784737E-002,
1.024666666666667E+009,1.448318082839251E-002,5.411424860358238E-002,-9.899866580963135E-001,-1.301894243806601E-002,1.448318082839251E-002,5.411424860358238E-002,-9.899866580963135E-001,-1.301894243806601E-002,
1.033033333333333E+009,9.546792134642601E-003,5.899187922477722E-002,-9.963698983192444E-001,1.404133811593056E-002,9.546792134642601E-003,5.899187922477722E-002,-9.963698983192444E-001,1.404133811593056E-002,
1.041400000000000E+009,3.048245329409838E-003,6.413511186838150E-002,-9.956116676330566E-001,3.523265942931175E-002,3.048245329409838E-003,6.413511186838150E-002,-9.956116676330566E-001,3.523265942931175E-002,
1.049766666666667E+009,6.436324212700129E-003,7.338948547840118E-002,-9.819496273994446E-001,7.079142332077026E-002,6.436324212700129E-003,7.338948547840118E-002,-9.819496273994446E-001,7.079142332077026E-002,
1.058133333333333E+009,1.108431629836559E-002,8.236977458000183E-002,-9.825720191001892E-001,9.328474104404450E-002,1.108431629836559E-002,8.236977458000183E-002,-9.825720191001892E-001,9.328474104404450E-002,
1.066500000000000E+009,2.280506305396557E-002,8.599776774644852E-002,-9.966805577278137E-001,1.278456002473831E-001,2.280506305396557E-002,8.599776774644852E-002,-9.966805577278137E-001,1.278456002473831E-001,
1.074866666666667E+009,3.673921152949333E-002,8.429245650768280E-002,-9.908162951469421E-001,1.471373587846756E-001,3.673921152949333E-002,8.429245650768280E-002,-9.908162951469421E-001,1.471373587846756E-001,
1.083233333333334E+009,4.560396075248718E-002,7.561186701059341E-002,-9.741175174713135E-001,1.688066720962524E-001,4.560396075248718E-002,7.561186701059341E-002,-9.741175174713135E-001,1.688066720962524E-001,
1.091600000000000E+009,5.220849812030792E-002,6.469336897134781E-002,-9.567439556121826E-001,1.875312328338623E-001,5.220849812030792E-002,6.469336897134781E-002,-9.567439556121826E-001,1.875312328338623E-001,
1.099966666666667E+009,5.125160887837410E-002,5.117293819785118E-002,-9.512113332748413E-001,2.263059467077255E-001,5.125160887837410E-002,5.117293819785118E-002,-9.512113332748413E-001,2.263059467077255E-001,
1.108333333333334E+009,4.299175366759300E-002,4.337328672409058E-002,-9.512637257575989E-001,2.346049547195435E-001,4.299175366759300E-002,4.337328672409058E-002,-9.512637257575989E-001,2.346049547195435E-001,
1.116700000000000E+009,3.251765295863152E-002,4.042022302746773E-002,-9.440282583236694E-001,2.681204974651337E-001,3.251765295863152E-002,4.042022302746773E-002,-9.440282583236694E-001,2.681204974651337E-001,
1.125066666666667E+009,2.153442054986954E-002,4.549794271588326E-002,-9.441999197006226E-001,2.852264344692230E-001,2.153442054986954E-002,4.549794271588326E-002,-9.441999197006226E-001,2.852264344692230E-001,
1.133433333333334E+009,1.409019622951746E-002,5.571124702692032E-002,-9.412071108818054E-001,3.302134275436401E-001,1.409019622951746E-002,5.571124702692032E-002,-9.412071108818054E-001,3.302134275436401E-001,
1.141800000000000E+009,1.333090104162693E-002,6.931158900260925E-002,-9.180371761322022E-001,3.445846438407898E-001,1.333090104162693E-002,6.931158900260925E-002,-9.180371761322022E-001,3.445846438407898E-001,
1.150166666666667E+009,2.283816784620285E-002,8.344023674726486E-002,-9.083912372589111E-001,3.451786339282990E-001,2.283816784620285E-002,8.344023674726486E-002,-9.083912372589111E-001,3.451786339282990E-001,
1.158533333333334E+009,3.925882279872894E-002,8.995380252599716E-002,-9.005777239799500E-001,3.847770988941193E-001,3.925882279872894E-002,8.995380252599716E-002,-9.005777239799500E-001,3.847770988941193E-001,
1.166900000000000E+009,5.871756002306938E-002,8.904070407152176E-002,-8.844978213310242E-001,4.048359692096710E-001,5.871756002306938E-002,8.904070407152176E-002,-8.844978213310242E-001,4.048359692096710E-001,
1.175266666666667E+009,7.465304434299469E-002,7.747465372085571E-002,-8.783687949180603E-001,4.337752461433411E-001,7.465304434299469E-002,7.747465372085571E-002,-8.783687949180603E-001,4.337752461433411E-001,
1.183633333333334E+009,8.665993064641953E-002,6.195280700922012E-002,-8.766518235206604E-001,4.461286962032318E-001,8.665993064641953E-002,6.195280700922012E-002,-8.766518235206604E-001,4.461286962032318E-001,
1.192000000000000E+009,8.644153922796249E-002,4.269156977534294E-002,-8.638926744461060E-001,4.684035181999207E-001,8.644153922796249E-002,4.269156977534294E-002,-8.638926744461060E-001,4.684035181999207E-001,
1.200366666666667E+009,7.681080698966980E-002,2.604548446834087E-002,-8.511846065521240E-001,4.897814095020294E-001,7.681080698966980E-002,2.604548446834087E-002,-8.511846065521240E-001,4.897814095020294E-001,
1.208733333333334E+009,6.184058263897896E-002,1.763185113668442E-002,-8.444610834121704E-001,5.317531228065491E-001,6.184058263897896E-002,1.763185113668442E-002,-8.444610834121704E-001,5.317531228065491E-001,
1.217100000000000E+009,4.604875296354294E-002,1.929610781371594E-002,-8.395047783851624E-001,5.433789491653442E-001,4.604875296354294E-002,1.929610781371594E-002,-8.395047783851624E-001,5.433789491653442E-001,
1.225466666666667E+009,3.423244878649712E-002,3.084148280322552E-002,-8.069038987159729E-001,5.671425461769104E-001,3.423244878649712E-002,3.084148280322552E-002,-8.069038987159729E-001,5.671425461769104E-001,
1.233833333333334E+009,3.024921752512455E-002,4.783026129007340E-002,-8.015263676643372E-001,5.783142447471619E-001,3.024921752512455E-002,4.783026129007340E-002,-8.015263676643372E-001,5.783142447471619E-001,
1.242200000000000E+009,3.914866596460342E-002,6.207771599292755E-002,-7.752379179000855E-001,6.118731498718262E-001,3.914866596460342E-002,6.207771599292755E-002,-7.752379179000855E-001,6.118731498718262E-001,
1.250566666666667E+009,5.261366814374924E-002,7.157694548368454E-002,-7.537785172462463E-001,6.173799633979797E-001,5.261366814374924E-002,7.157694548368454E-002,-7.537785172462463E-001,6.173799633979797E-001,
1.258933333333334E+009,7.312435656785965E-002,7.095085084438324E-002,-7.480222582817078E-001,6.379484534263611E-001,7.312435656785965E-002,7.095085084438324E-002,-7.480222582817078E-001,6.379484534263611E-001,
1.267300000000000E+009,9.250136464834213E-002,5.924293026328087E-002,-7.289175391197205E-001,6.524896621704102E-001,9.250136464834213E-002,5.924293026328087E-002,-7.289175391197205E-001,6.524896621704102E-001,
1.275666666666667E+009,1.011513024568558E-001,4.056221991777420E-002,-7.164248228073120E-001,6.600955724716187E-001,1.011513024568558E-001,4.056221991777420E-002,-7.164248228073120E-001,6.600955724716187E-001,
1.284033333333334E+009,1.029504165053368E-001,1.893624290823937E-002,-7.002912759780884E-001,7.015895843505859E-001,1.029504165053368E-001,1.893624290823937E-002,-7.002912759780884E-001,7.015895843505859E-001,
1.292400000000000E+009,9.253679215908051E-002,2.001925167860463E-004,-6.890699267387390E-001,7.049350142478943E-001,9.253679215908051E-002,2.001925167860463E-004,-6.890699267387390E-001,7.049350142478943E-001,
1.300766666666667E+009,7.307191193103790E-002,-8.199492469429970E-003,-6.654614210128784E-001,7.300375699996948E-001,7.307191193103790E-002,-8.199492469429970E-003,-6.654614210128784E-001,7.300375699996948E-001,
1.309133333333334E+009,5.317582190036774E-002,-6.552755367010832E-003,-6.408187150955200E-001,7.440186738967896E-001,5.317582190036774E-002,-6.552755367010832E-003,-6.408187150955200E-001,7.440186738967896E-001,
1.317500000000000E+009,3.922364488244057E-002,5.907470826059580E-003,-6.277070045471191E-001,7.744683027267456E-001,3.922364488244057E-002,5.907470826059580E-003,-6.277070045471191E-001,7.744683027267456E-001,
1.325866666666667E+009,3.540418297052383E-002,2.322465926408768E-002,-6.074379682540894E-001,7.896435856819153E-001,3.540418297052383E-002,2.322465926408768E-002,-6.074379682540894E-001,7.896435856819153E-001,
1.334233333333334E+009,4.427943751215935E-002,4.080187156796455E-002,-5.885756611824036E-001,7.952914237976074E-001,4.427943751215935E-002,4.080187156796455E-002,-5.885756611824036E-001,7.952914237976074E-001,
1.342600000000000E+009,6.029865145683289E-002,4.923093318939209E-002,-5.701951384544373E-001,8.123383522033691E-001,6.029865145683289E-002,4.923093318939209E-002,-5.701951384544373E-001,8.123383522033691E-001,
1.350966666666667E+009,8.055827766656876E-002,4.568290337920189E-002,-5.438801646232605E-001,8.237833976745606E-001,8.055827766656876E-002,4.568290337920189E-002,-5.438801646232605E-001,8.237833976745606E-001,
1.359333333333334E+009,9.513407945632935E-002,3.125245869159699E-002,-5.314270257949829E-001,8.238428831100464E-001,9.513407945632935E-002,3.125245869159699E-002,-5.314270257949829E-001,8.238428831100464E-001,
1.367700000000000E+009,1.003533601760864E-001,1.083006151020527E-002,-4.971835911273956E-001,8.421666026115418E-001,1.003533601760864E-001,1.083006151020527E-002,-4.971835911273956E-001,8.421666026115418E-001,
1.376066666666667E+009,9.619630873203278E-002,-1.189791038632393E-002,-4.819802939891815E-001,8.508839607238770E-001,9.619630873203278E-002,-1.189791038632393E-002,-4.819802939891815E-001,8.508839607238770E-001,
1.384433333333334E+009,7.886886596679688E-002,-2.733692899346352E-002,-4.670167863368988E-001,8.820138573646545E-001,7.886886596679688E-002,-2.733692899346352E-002,-4.670167863368988E-001,8.820138573646545E-001,
1.392800000000000E+009,5.811809375882149E-002,-2.962139993906021E-002,-4.453683793544769E-001,8.897566199302673E-001,5.811809375882149E-002,-2.962139993906021E-002,-4.453683793544769E-001,8.897566199302673E-001,
1.401166666666667E+009,3.822963684797287E-002,-2.202466130256653E-002,-4.188386201858521E-001,8.973493576049805E-001,3.822963684797287E-002,-2.202466130256653E-002,-4.188386201858521E-001,8.973493576049805E-001,
1.409533333333334E+009,2.547004260122776E-002,-4.711630288511515E-003,-3.891089558601379E-001,9.118087887763977E-001,2.547004260122776E-002,-4.711630288511515E-003,-3.891089558601379E-001,9.118087887763977E-001,
1.417900000000000E+009,2.725188434123993E-002,1.854300312697887E-002,-3.689658343791962E-001,9.069406986236572E-001,2.725188434123993E-002,1.854300312697887E-002,-3.689658343791962E-001,9.069406986236572E-001,
1.426266666666667E+009,3.878737986087799E-002,3.528670966625214E-002,-3.317438364028931E-001,9.328389167785645E-001,3.878737986087799E-002,3.528670966625214E-002,-3.317438364028931E-001,9.328389167785645E-001,
1.434633333333334E+009,5.968007445335388E-002,4.321442544460297E-002,-3.215987980365753E-001,9.277019500732422E-001,5.968007445335388E-002,4.321442544460297E-002,-3.215987980365753E-001,9.277019500732422E-001,
1.443000000000000E+009,8.022758364677429E-002,3.970554098486900E-002,-2.980194091796875E-001,9.346375465393066E-001,8.022758364677429E-002,3.970554098486900E-002,-2.980194091796875E-001,9.346375465393066E-001,
1.451366666666667E+009,9.573638439178467E-002,2.350445277988911E-002,-2.713017463684082E-001,9.348125457763672E-001,9.573638439178467E-002,2.350445277988911E-002,-2.713017463684082E-001,9.348125457763672E-001,
1.459733333333334E+009,1.015697866678238E-001,2.717045368626714E-003,-2.447433471679688E-001,9.615935683250427E-001,1.015697866678238E-001,2.717045368626714E-003,-2.447433471679688E-001,9.615935683250427E-001,
