% Version 1.00
%
%freq[Hz],re:Trc1_S11,im:Trc1_S11,re:Trc2_S21,im:Trc2_S21,re:Trc3_S11,im:Trc3_S11,re:Trc4_S21,im:Trc4_S21,
6.900000000000000E+008,-1.045535057783127E-001,5.042014643549919E-003,-4.567698538303375E-001,-8.709179162979126E-001,-1.045535057783127E-001,5.042014643549919E-003,-4.567698538303375E-001,-8.709179162979126E-001,
6.983666666666666E+008,-9.574788063764572E-002,7.822573184967041E-003,-4.890953302383423E-001,-8.602442741394043E-001,-9.574788063764572E-002,7.822573184967041E-003,-4.890953302383423E-001,-8.602442741394043E-001,
7.067333333333334E+008,-8.980136364698410E-002,4.761079326272011E-003,-5.117607712745667E-001,-8.338496685028076E-001,-8.980136364698410E-002,4.761079326272011E-003,-5.117607712745667E-001,-8.338496685028076E-001,
7.151000000000000E+008,-8.911217004060745E-002,-3.201231011189520E-004,-5.485013127326965E-001,-8.319726586341858E-001,-8.911217004060745E-002,-3.201231011189520E-004,-5.485013127326965E-001,-8.319726586341858E-001,
7.234666666666666E+008,-9.056787192821503E-002,-4.973780363798142E-003,-5.634133219718933E-001,-8.174180984497070E-001,-9.056787192821503E-002,-4.973780363798142E-003,-5.634133219718933E-001,-8.174180984497070E-001,
7.318333333333334E+008,-9.718772023916245E-002,-6.219561677426100E-003,-5.809310078620911E-001,-8.006290793418884E-001,-9.718772023916245E-002,-6.219561677426100E-003,-5.809310078620911E-001,-8.006290793418884E-001,
7.402000000000000E+008,-1.030540838837624E-001,-3.210494760423899E-003,-5.941994190216065E-001,-7.759347558021545E-001,-1.030540838837624E-001,-3.210494760423899E-003,-5.941994190216065E-001,-7.759347558021545E-001,
7.485666666666666E+008,-1.087786108255386E-001,4.329929593950510E-003,-6.248685717582703E-001,-7.636234760284424E-001,-1.087786108255386E-001,4.329929593950510E-003,-6.248685717582703E-001,-7.636234760284424E-001,
7.569333333333334E+008,-1.129384785890579E-001,1.519293431192637E-002,-6.445265412330627E-001,-7.512530088424683E-001,-1.129384785890579E-001,1.519293431192637E-002,-6.445265412330627E-001,-7.512530088424683E-001,
7.653000000000000E+008,-1.074207052588463E-001,2.525206655263901E-002,-6.541227698326111E-001,-7.326618432998657E-001,-1.074207052588463E-001,2.525206655263901E-002,-6.541227698326111E-001,-7.326618432998657E-001,
7.736666666666666E+008,-1.013183817267418E-001,3.322277218103409E-002,-6.672670245170593E-001,-7.289311289787293E-001,-1.013183817267418E-001,3.322277218103409E-002,-6.672670245170593E-001,-7.289311289787293E-001,
7.820333333333334E+008,-9.244091063737869E-002,3.922076895833015E-002,-7.018206119537354E-001,-7.017821073532105E-001,-9.244091063737869E-002,3.922076895833015E-002,-7.018206119537354E-001,-7.017821073532105E-001,
7.904000000000000E+008,-8.208319544792175E-002,3.992299363017082E-002,-7.116799950599670E-001,-6.851073503494263E-001,-8.208319544792175E-002,3.992299363017082E-002,-7.116799950599670E-001,-6.851073503494263E-001,
7.987666666666666E+008,-7.759746909141541E-002,3.720263764262199E-002,-7.196561098098755E-001,-6.664059162139893E-001,-7.759746909141541E-002,3.720263764262199E-002,-7.196561098098755E-001,-6.664059162139893E-001,
8.071333333333334E+008,-7.522816210985184E-002,3.148619830608368E-002,-7.471185922622681E-001,-6.357873678207398E-001,-7.522816210985184E-002,3.148619830608368E-002,-7.471185922622681E-001,-6.357873678207398E-001,
8.155000000000000E+008,-7.672391831874847E-002,2.604225836694241E-002,-7.745863199234009E-001,-6.235574483871460E-001,-7.672391831874847E-002,2.604225836694241E-002,-7.745863199234009E-001,-6.235574483871460E-001,
8.238666666666666E+008,-8.251079916954041E-002,2.481996826827526E-002,-7.798431515693665E-001,-6.011753082275391E-001,-8.251079916954041E-002,2.481996826827526E-002,-7.798431515693665E-001,-6.011753082275391E-001,
8.322333333333334E+008,-8.774336427450180E-002,2.700257115066052E-002,-7.933050394058228E-001,-5.793105959892273E-001,-8.774336427450180E-002,2.700257115066052E-002,-7.933050394058228E-001,-5.793105959892273E-001,
8.406000000000000E+008,-9.241151809692383E-002,3.069456107914448E-002,-8.038278222084045E-001,-5.624995827674866E-001,-9.241151809692383E-002,3.069456107914448E-002,-8.038278222084045E-001,-5.624995827674866E-001,
8.489666666666668E+008,-9.420275688171387E-002,4.285869374871254E-002,-8.180966377258301E-001,-5.308167934417725E-001,-9.420275688171387E-002,4.285869374871254E-002,-8.180966377258301E-001,-5.308167934417725E-001,
8.573333333333334E+008,-9.186019003391266E-002,5.168373510241509E-002,-8.212303519248962E-001,-5.005523562431335E-001,-9.186019003391266E-002,5.168373510241509E-002,-8.212303519248962E-001,-5.005523562431335E-001,
8.657000000000000E+008,-8.593837171792984E-002,6.028090789914131E-002,-8.508154749870300E-001,-5.011518001556397E-001,-8.593837171792984E-002,6.028090789914131E-002,-8.508154749870300E-001,-5.011518001556397E-001,
8.740666666666668E+008,-7.683429121971130E-002,6.720367819070816E-002,-8.574056625366211E-001,-4.793999195098877E-001,-7.683429121971130E-002,6.720367819070816E-002,-8.574056625366211E-001,-4.793999195098877E-001,
8.824333333333334E+008,-6.819105893373489E-002,6.977301090955734E-002,-8.758336901664734E-001,-4.556998014450073E-001,-6.819105893373489E-002,6.977301090955734E-002,-8.758336901664734E-001,-4.556998014450073E-001,
8.908000000000000E+008,-5.942300334572792E-002,6.790870428085327E-002,-8.901017308235169E-001,-4.380051493644714E-001,-5.942300334572792E-002,6.790870428085327E-002,-8.901017308235169E-001,-4.380051493644714E-001,
8.991666666666668E+008,-5.243761464953423E-002,6.383293867111206E-002,-8.923863768577576E-001,-4.089894890785217E-001,-5.243761464953423E-002,6.383293867111206E-002,-8.923863768577576E-001,-4.089894890785217E-001,
9.075333333333334E+008,-5.153165757656097E-002,5.778660997748375E-002,-9.061844944953919E-001,-3.850354850292206E-001,-5.153165757656097E-002,5.778660997748375E-002,-9.061844944953919E-001,-3.850354850292206E-001,
9.159000000000000E+008,-5.353075265884399E-002,5.213149636983872E-002,-9.296698570251465E-001,-3.594205379486084E-001,-5.353075265884399E-002,5.213149636983872E-002,-9.296698570251465E-001,-3.594205379486084E-001,
9.242666666666668E+008,-5.945108830928803E-002,5.283495783805847E-002,-9.223485589027405E-001,-3.355490565299988E-001,-5.945108830928803E-002,5.283495783805847E-002,-9.223485589027405E-001,-3.355490565299988E-001,
9.326333333333334E+008,-6.388515233993530E-002,5.526759475469589E-002,-9.361642599105835E-001,-3.225909173488617E-001,-6.388515233993530E-002,5.526759475469589E-002,-9.361642599105835E-001,-3.225909173488617E-001,
9.410000000000000E+008,-6.768538802862167E-002,6.014551967382431E-002,-9.489173293113709E-001,-2.868594527244568E-001,-6.768538802862167E-002,6.014551967382431E-002,-9.489173293113709E-001,-2.868594527244568E-001,
9.493666666666668E+008,-6.856817752122879E-002,7.022675871849060E-002,-9.542860388755798E-001,-2.556529343128204E-001,-6.856817752122879E-002,7.022675871849060E-002,-9.542860388755798E-001,-2.556529343128204E-001,
9.577333333333334E+008,-6.527210772037506E-002,8.095407485961914E-002,-9.611126184463501E-001,-2.430775612592697E-001,-6.527210772037506E-002,8.095407485961914E-002,-9.611126184463501E-001,-2.430775612592697E-001,
9.661000000000000E+008,-5.613954737782478E-002,8.844973146915436E-002,-9.642323851585388E-001,-2.010521143674851E-001,-5.613954737782478E-002,8.844973146915436E-002,-9.642323851585388E-001,-2.010521143674851E-001,
9.744666666666668E+008,-4.438599571585655E-002,9.002052992582321E-002,-9.588471651077271E-001,-1.893157660961151E-001,-4.438599571585655E-002,9.002052992582321E-002,-9.588471651077271E-001,-1.893157660961151E-001,
9.828333333333334E+008,-3.427879512310028E-002,9.202887862920761E-002,-9.792293310165405E-001,-1.686360836029053E-001,-3.427879512310028E-002,9.202887862920761E-002,-9.792293310165405E-001,-1.686360836029053E-001,
9.912000000000000E+008,-2.233051881194115E-002,8.675828576087952E-002,-9.750210046768189E-001,-1.461548358201981E-001,-2.233051881194115E-002,8.675828576087952E-002,-9.750210046768189E-001,-1.461548358201981E-001,
9.995666666666668E+008,-1.786620169878006E-002,7.990043610334396E-002,-9.890687465667725E-001,-1.084096655249596E-001,-1.786620169878006E-002,7.990043610334396E-002,-9.890687465667725E-001,-1.084096655249596E-001,
1.007933333333333E+009,-1.364825200289488E-002,7.171009480953217E-002,-1.007008552551270E+000,-9.366797655820847E-002,-1.364825200289488E-002,7.171009480953217E-002,-1.007008552551270E+000,-9.366797655820847E-002,
1.016300000000000E+009,-1.835363917052746E-002,6.626173108816147E-002,-9.928337335586548E-001,-6.515651941299439E-002,-1.835363917052746E-002,6.626173108816147E-002,-9.928337335586548E-001,-6.515651941299439E-002,
1.024666666666667E+009,-2.569715492427349E-002,6.244329735636711E-002,-9.889685511589050E-001,-3.820721060037613E-002,-2.569715492427349E-002,6.244329735636711E-002,-9.889685511589050E-001,-3.820721060037613E-002,
1.033033333333333E+009,-3.023682348430157E-002,6.750975549221039E-002,-9.959816932678223E-001,-1.124072726815939E-002,-3.023682348430157E-002,6.750975549221039E-002,-9.959816932678223E-001,-1.124072726815939E-002,
1.041400000000000E+009,-3.625429794192314E-002,7.270675897598267E-002,-9.962753057479858E-001,1.293839607387781E-002,-3.625429794192314E-002,7.270675897598267E-002,-9.962753057479858E-001,1.293839607387781E-002,
1.049766666666667E+009,-3.216200694441795E-002,8.261980116367340E-002,-9.820924997329712E-001,4.557968303561211E-002,-3.216200694441795E-002,8.261980116367340E-002,-9.820924997329712E-001,4.557968303561211E-002,
1.058133333333333E+009,-2.773816138505936E-002,9.250572323799133E-002,-9.852473139762878E-001,6.893818825483322E-002,-2.773816138505936E-002,9.250572323799133E-002,-9.852473139762878E-001,6.893818825483322E-002,
1.066500000000000E+009,-1.514639146625996E-002,9.753971546888351E-002,-1.000489354133606E+000,1.033936664462090E-001,-1.514639146625996E-002,9.753971546888351E-002,-1.000489354133606E+000,1.033936664462090E-001,
1.074866666666667E+009,-9.437650442123413E-005,9.708359837532044E-002,-9.937081336975098E-001,1.247028633952141E-001,-9.437650442123413E-005,9.708359837532044E-002,-9.937081336975098E-001,1.247028633952141E-001,
1.083233333333334E+009,9.765151888132095E-003,8.978044241666794E-002,-9.776042699813843E-001,1.459084451198578E-001,9.765151888132095E-003,8.978044241666794E-002,-9.776042699813843E-001,1.459084451198578E-001,
1.091600000000000E+009,1.815435104072094E-002,8.028720319271088E-002,-9.617397785186768E-001,1.662018001079559E-001,1.815435104072094E-002,8.028720319271088E-002,-9.617397785186768E-001,1.662018001079559E-001,
1.099966666666667E+009,1.795938238501549E-002,6.666148453950882E-002,-9.570633769035339E-001,2.059330791234970E-001,1.795938238501549E-002,6.666148453950882E-002,-9.570633769035339E-001,2.059330791234970E-001,
1.108333333333334E+009,1.037070900201798E-002,5.885814875364304E-002,-9.590541720390320E-001,2.138133943080902E-001,1.037070900201798E-002,5.885814875364304E-002,-9.590541720390320E-001,2.138133943080902E-001,
1.116700000000000E+009,7.211149204522371E-004,5.562586337327957E-002,-9.501108527183533E-001,2.483504563570023E-001,7.211149204522371E-004,5.562586337327957E-002,-9.501108527183533E-001,2.483504563570023E-001,
1.125066666666667E+009,-9.929371997714043E-003,6.051989272236824E-002,-9.502701759338379E-001,2.660230398178101E-001,-9.929371997714043E-003,6.051989272236824E-002,-9.502701759338379E-001,2.660230398178101E-001,
1.133433333333334E+009,-1.722105406224728E-002,7.027490437030792E-002,-9.475165009498596E-001,3.117140233516693E-001,-1.722105406224728E-002,7.027490437030792E-002,-9.475165009498596E-001,3.117140233516693E-001,
1.141800000000000E+009,-1.794072240591049E-002,8.453281968832016E-002,-9.253219366073608E-001,3.279867768287659E-001,-1.794072240591049E-002,8.453281968832016E-002,-9.253219366073608E-001,3.279867768287659E-001,
1.150166666666667E+009,-7.871676236391068E-003,9.857510775327683E-002,-9.144557118415833E-001,3.255471885204315E-001,-7.871676236391068E-003,9.857510775327683E-002,-9.144557118415833E-001,3.255471885204315E-001,
1.158533333333334E+009,8.554965257644653E-003,1.065744832158089E-001,-9.075126647949219E-001,3.676090538501740E-001,8.554965257644653E-003,1.065744832158089E-001,-9.075126647949219E-001,3.676090538501740E-001,
1.166900000000000E+009,2.907986566424370E-002,1.070219501852989E-001,-8.931305408477783E-001,3.888670802116394E-001,2.907986566424370E-002,1.070219501852989E-001,-8.931305408477783E-001,3.888670802116394E-001,
1.175266666666667E+009,4.653089866042137E-002,9.654786437749863E-002,-8.899018764495850E-001,4.182573556900024E-001,4.653089866042137E-002,9.654786437749863E-002,-8.899018764495850E-001,4.182573556900024E-001,
1.183633333333334E+009,5.951074883341789E-002,8.185176551342011E-002,-8.867293596267700E-001,4.282979667186737E-001,5.951074883341789E-002,8.185176551342011E-002,-8.867293596267700E-001,4.282979667186737E-001,
1.192000000000000E+009,6.106459349393845E-002,6.312246620655060E-002,-8.745112419128418E-001,4.535968005657196E-001,6.106459349393845E-002,6.312246620655060E-002,-8.745112419128418E-001,4.535968005657196E-001,
1.200366666666667E+009,5.247025936841965E-002,4.633245989680290E-002,-8.614166378974915E-001,4.761450290679932E-001,5.247025936841965E-002,4.633245989680290E-002,-8.614166378974915E-001,4.761450290679932E-001,
1.208733333333334E+009,3.841882199048996E-002,3.768891096115112E-002,-8.538837432861328E-001,5.210483670234680E-001,3.841882199048996E-002,3.768891096115112E-002,-8.538837432861328E-001,5.210483670234680E-001,
1.217100000000000E+009,2.334640733897686E-002,3.909493982791901E-002,-8.508158326148987E-001,5.291895270347595E-001,2.334640733897686E-002,3.909493982791901E-002,-8.508158326148987E-001,5.291895270347595E-001,
1.225466666666667E+009,1.112148165702820E-002,5.071723461151123E-002,-8.166096210479736E-001,5.542023777961731E-001,1.112148165702820E-002,5.071723461151123E-002,-8.166096210479736E-001,5.542023777961731E-001,
1.233833333333334E+009,7.752286270260811E-003,6.729983538389206E-002,-8.114290833473206E-001,5.664854049682617E-001,7.752286270260811E-003,6.729983538389206E-002,-8.114290833473206E-001,5.664854049682617E-001,
1.242200000000000E+009,1.742569915950298E-002,8.165019750595093E-002,-7.846890091896057E-001,5.989314913749695E-001,1.742569915950298E-002,8.165019750595093E-002,-7.846890091896057E-001,5.989314913749695E-001,
1.250566666666667E+009,3.138736262917519E-002,9.156137704849243E-002,-7.657794952392578E-001,6.049093008041382E-001,3.138736262917519E-002,9.156137704849243E-002,-7.657794952392578E-001,6.049093008041382E-001,
1.258933333333334E+009,5.279538780450821E-002,9.107835590839386E-002,-7.576947212219238E-001,6.285176873207092E-001,5.279538780450821E-002,9.107835590839386E-002,-7.576947212219238E-001,6.285176873207092E-001,
1.267300000000000E+009,7.351159304380417E-002,8.050079643726349E-002,-7.385606169700623E-001,6.430001258850098E-001,7.351159304380417E-002,8.050079643726349E-002,-7.385606169700623E-001,6.430001258850098E-001,
1.275666666666667E+009,8.353623002767563E-002,6.191950291395187E-002,-7.281017899513245E-001,6.522610783576965E-001,8.353623002767563E-002,6.191950291395187E-002,-7.281017899513245E-001,6.522610783576965E-001,
1.284033333333334E+009,8.660679310560226E-002,4.028037562966347E-002,-7.111741304397583E-001,6.939624547958374E-001,8.660679310560226E-002,4.028037562966347E-002,-7.111741304397583E-001,6.939624547958374E-001,
1.292400000000000E+009,7.700116187334061E-002,2.112346328794956E-002,-6.970868706703186E-001,7.003534436225891E-001,7.700116187334061E-002,2.112346328794956E-002,-6.970868706703186E-001,7.003534436225891E-001,
1.300766666666667E+009,5.807592347264290E-002,1.309142634272575E-002,-6.757744550704956E-001,7.239881753921509E-001,5.807592347264290E-002,1.309142634272575E-002,-6.757744550704956E-001,7.239881753921509E-001,
1.309133333333334E+009,3.870372846722603E-002,1.434446591883898E-002,-6.531334519386292E-001,7.398816347122192E-001,3.870372846722603E-002,1.434446591883898E-002,-6.531334519386292E-001,7.398816347122192E-001,
1.317500000000000E+009,2.492137625813484E-002,2.646937593817711E-002,-6.359392404556274E-001,7.685611248016357E-001,2.492137625813484E-002,2.646937593817711E-002,-6.359392404556274E-001,7.685611248016357E-001,
1.325866666666667E+009,2.114927954971790E-002,4.361411556601524E-002,-6.154485344886780E-001,7.846915125846863E-001,2.114927954971790E-002,4.361411556601524E-002,-6.154485344886780E-001,7.846915125846863E-001,
1.334233333333334E+009,3.046622313559055E-002,6.140877306461334E-002,-5.971038937568665E-001,7.898650765419006E-001,3.046622313559055E-002,6.140877306461334E-002,-5.971038937568665E-001,7.898650765419006E-001,
1.342600000000000E+009,4.706230387091637E-002,6.974489241838455E-002,-5.803908705711365E-001,8.068614602088928E-001,4.706230387091637E-002,6.974489241838455E-002,-5.803908705711365E-001,8.068614602088928E-001,
1.350966666666667E+009,6.797647476196289E-002,6.645183265209198E-002,-5.528016686439514E-001,8.191713094711304E-001,6.797647476196289E-002,6.645183265209198E-002,-5.528016686439514E-001,8.191713094711304E-001,
1.359333333333334E+009,8.363054692745209E-002,5.195282027125359E-002,-5.410723090171814E-001,8.199331164360046E-001,8.363054692745209E-002,5.195282027125359E-002,-5.410723090171814E-001,8.199331164360046E-001,
1.367700000000000E+009,8.987130224704742E-002,3.095584549009800E-002,-5.069708228111267E-001,8.395727872848511E-001,8.987130224704742E-002,3.095584549009800E-002,-5.069708228111267E-001,8.395727872848511E-001,
1.376066666666667E+009,8.740524947643280E-002,8.388254791498184E-003,-4.903784394264221E-001,8.491247892379761E-001,8.740524947643280E-002,8.388254791498184E-003,-4.903784394264221E-001,8.491247892379761E-001,
1.384433333333334E+009,7.043094187974930E-002,-6.928688846528530E-003,-4.769406020641327E-001,8.796129226684570E-001,7.043094187974930E-002,-6.928688846528530E-003,-4.769406020641327E-001,8.796129226684570E-001,
1.392800000000000E+009,5.048147216439247E-002,-9.221024811267853E-003,-4.552675485610962E-001,8.876826763153076E-001,5.048147216439247E-002,-9.221024811267853E-003,-4.552675485610962E-001,8.876826763153076E-001,
1.401166666666667E+009,3.096621297299862E-002,-1.560508273541927E-003,-4.258348941802979E-001,8.958004713058472E-001,3.096621297299862E-002,-1.560508273541927E-003,-4.258348941802979E-001,8.958004713058472E-001,
1.409533333333334E+009,1.901152357459068E-002,1.565137505531311E-002,-3.954858779907227E-001,9.107116460800171E-001,1.901152357459068E-002,1.565137505531311E-002,-3.954858779907227E-001,9.107116460800171E-001,
1.417900000000000E+009,2.112805470824242E-002,3.947623819112778E-002,-3.748877048492432E-001,9.074253439903259E-001,2.112805470824242E-002,3.947623819112778E-002,-3.748877048492432E-001,9.074253439903259E-001,
1.426266666666667E+009,3.289562463760376E-002,5.582453310489655E-002,-3.395354151725769E-001,9.330132007598877E-001,3.289562463760376E-002,5.582453310489655E-002,-3.395354151725769E-001,9.330132007598877E-001,
1.434633333333334E+009,5.443989112973213E-002,6.327025592327118E-002,-3.284509778022766E-001,9.262769222259522E-001,5.443989112973213E-002,6.327025592327118E-002,-3.284509778022766E-001,9.262769222259522E-001,
1.443000000000000E+009,7.567009329795837E-002,5.921130999922752E-002,-3.040843904018402E-001,9.334805607795715E-001,7.567009329795837E-002,5.921130999922752E-002,-3.040843904018402E-001,9.334805607795715E-001,
1.451366666666667E+009,9.196854382753372E-002,4.201147332787514E-002,-2.788511812686920E-001,9.346826672554016E-001,9.196854382753372E-002,4.201147332787514E-002,-2.788511812686920E-001,9.346826672554016E-001,
1.459733333333334E+009,9.882558137178421E-002,2.048682235181332E-002,-2.531839907169342E-001,9.616031646728516E-001,9.882558137178421E-002,2.048682235181332E-002,-2.531839907169342E-001,9.616031646728516E-001,
