% Version 1.00
%
%freq[Hz],re:Trc1_S11,im:Trc1_S11,re:Trc2_S21,im:Trc2_S21,re:Trc3_S11,im:Trc3_S11,re:Trc4_S21,im:Trc4_S21,
6.900000000000000E+008,-4.889369383454323E-002,4.054204374551773E-002,-5.060382485389710E-001,-8.537338972091675E-001,-4.889369383454323E-002,4.054204374551773E-002,-5.060382485389710E-001,-8.537338972091675E-001,
6.983666666666666E+008,-4.115070402622223E-002,4.067766293883324E-002,-5.305578708648682E-001,-8.421166539192200E-001,-4.115070402622223E-002,4.067766293883324E-002,-5.305578708648682E-001,-8.421166539192200E-001,
7.067333333333334E+008,-3.520866110920906E-002,3.602965921163559E-002,-5.537063479423523E-001,-8.137732148170471E-001,-3.520866110920906E-002,3.602965921163559E-002,-5.537063479423523E-001,-8.137732148170471E-001,
7.151000000000000E+008,-3.521532565355301E-002,2.801486477255821E-002,-5.912489295005798E-001,-8.154238462448120E-001,-3.521532565355301E-002,2.801486477255821E-002,-5.912489295005798E-001,-8.154238462448120E-001,
7.234666666666666E+008,-3.712736070156097E-002,2.343897894024849E-002,-6.008015275001526E-001,-7.990808486938477E-001,-3.712736070156097E-002,2.343897894024849E-002,-6.008015275001526E-001,-7.990808486938477E-001,
7.318333333333334E+008,-4.462507367134094E-002,2.118767425417900E-002,-6.200306415557861E-001,-7.743303775787354E-001,-4.462507367134094E-002,2.118767425417900E-002,-6.200306415557861E-001,-7.743303775787354E-001,
7.402000000000000E+008,-5.078566074371338E-002,2.373494207859039E-002,-6.315228939056397E-001,-7.522245049476624E-001,-5.078566074371338E-002,2.373494207859039E-002,-6.315228939056397E-001,-7.522245049476624E-001,
7.485666666666666E+008,-5.557334050536156E-002,3.096162527799606E-002,-6.598549485206604E-001,-7.372736334800720E-001,-5.557334050536156E-002,3.096162527799606E-002,-6.598549485206604E-001,-7.372736334800720E-001,
7.569333333333334E+008,-5.926201492547989E-002,4.065578058362007E-002,-6.753506660461426E-001,-7.281846404075623E-001,-5.926201492547989E-002,4.065578058362007E-002,-6.753506660461426E-001,-7.281846404075623E-001,
7.653000000000000E+008,-5.397325381636620E-002,4.947277903556824E-002,-6.862297654151917E-001,-7.087661623954773E-001,-5.397325381636620E-002,4.947277903556824E-002,-6.862297654151917E-001,-7.087661623954773E-001,
7.736666666666666E+008,-4.781087860465050E-002,5.644714832305908E-002,-7.013576030731201E-001,-7.022827267646790E-001,-4.781087860465050E-002,5.644714832305908E-002,-7.013576030731201E-001,-7.022827267646790E-001,
7.820333333333334E+008,-3.860934078693390E-002,6.029764935374260E-002,-7.326181530952454E-001,-6.746001243591309E-001,-3.860934078693390E-002,6.029764935374260E-002,-7.326181530952454E-001,-6.746001243591309E-001,
7.904000000000000E+008,-2.810310944914818E-002,5.950374528765678E-002,-7.425583600997925E-001,-6.552422642707825E-001,-2.810310944914818E-002,5.950374528765678E-002,-7.425583600997925E-001,-6.552422642707825E-001,
7.987666666666666E+008,-2.430146560072899E-002,5.405658856034279E-002,-7.450469732284546E-001,-6.457403302192688E-001,-2.430146560072899E-002,5.405658856034279E-002,-7.450469732284546E-001,-6.457403302192688E-001,
8.071333333333334E+008,-2.186020091176033E-002,4.752245917916298E-002,-7.760089039802551E-001,-6.087114214897156E-001,-2.186020091176033E-002,4.752245917916298E-002,-7.760089039802551E-001,-6.087114214897156E-001,
8.155000000000000E+008,-2.486662194132805E-002,4.040348157286644E-002,-7.979628443717957E-001,-5.940519571304321E-001,-2.486662194132805E-002,4.040348157286644E-002,-7.979628443717957E-001,-5.940519571304321E-001,
8.238666666666666E+008,-3.204258903861046E-002,3.882510960102081E-002,-8.056734204292297E-001,-5.766506195068359E-001,-3.204258903861046E-002,3.882510960102081E-002,-8.056734204292297E-001,-5.766506195068359E-001,
8.322333333333334E+008,-3.742490708827972E-002,4.056587070226669E-002,-8.157557845115662E-001,-5.537508130073547E-001,-3.742490708827972E-002,4.056587070226669E-002,-8.157557845115662E-001,-5.537508130073547E-001,
8.406000000000000E+008,-4.196266084909439E-002,4.373982548713684E-002,-8.309136629104614E-001,-5.278674960136414E-001,-4.196266084909439E-002,4.373982548713684E-002,-8.309136629104614E-001,-5.278674960136414E-001,
8.489666666666668E+008,-4.364312067627907E-002,5.486082658171654E-002,-8.389415144920349E-001,-5.031377077102661E-001,-4.364312067627907E-002,5.486082658171654E-002,-8.389415144920349E-001,-5.031377077102661E-001,
8.573333333333334E+008,-4.139181226491928E-002,6.297478079795837E-002,-8.432793021202087E-001,-4.701469540596008E-001,-4.139181226491928E-002,6.297478079795837E-002,-8.432793021202087E-001,-4.701469540596008E-001,
8.657000000000000E+008,-3.574456274509430E-002,7.074107229709625E-002,-8.689650297164917E-001,-4.785306155681610E-001,-3.574456274509430E-002,7.074107229709625E-002,-8.689650297164917E-001,-4.785306155681610E-001,
8.740666666666668E+008,-2.663792297244072E-002,7.546258717775345E-002,-8.739376068115234E-001,-4.501066803932190E-001,-2.663792297244072E-002,7.546258717775345E-002,-8.739376068115234E-001,-4.501066803932190E-001,
8.824333333333334E+008,-1.782189309597015E-002,7.699897885322571E-002,-8.936799764633179E-001,-4.265247285366058E-001,-1.782189309597015E-002,7.699897885322571E-002,-8.936799764633179E-001,-4.265247285366058E-001,
8.908000000000000E+008,-9.959958493709564E-003,7.316178083419800E-002,-9.059410691261292E-001,-4.111843705177307E-001,-9.959958493709564E-003,7.316178083419800E-002,-9.059410691261292E-001,-4.111843705177307E-001,
8.991666666666668E+008,-3.865111619234085E-003,6.769385933876038E-002,-9.089703559875488E-001,-3.790904581546783E-001,-3.865111619234085E-003,6.769385933876038E-002,-9.089703559875488E-001,-3.790904581546783E-001,
9.075333333333334E+008,-3.722235327586532E-003,6.016208603978157E-002,-9.219053387641907E-001,-3.574748337268829E-001,-3.722235327586532E-003,6.016208603978157E-002,-9.219053387641907E-001,-3.574748337268829E-001,
9.159000000000000E+008,-6.501980591565371E-003,5.474494025111198E-002,-9.430204033851624E-001,-3.318295478820801E-001,-6.501980591565371E-003,5.474494025111198E-002,-9.430204033851624E-001,-3.318295478820801E-001,
9.242666666666668E+008,-1.334647554904223E-002,5.447869375348091E-002,-9.324809312820435E-001,-3.103291392326355E-001,-1.334647554904223E-002,5.447869375348091E-002,-9.324809312820435E-001,-3.103291392326355E-001,
9.326333333333334E+008,-1.812652871012688E-002,5.673946067690849E-002,-9.482693672180176E-001,-2.944422364234924E-001,-1.812652871012688E-002,5.673946067690849E-002,-9.482693672180176E-001,-2.944422364234924E-001,
9.410000000000000E+008,-2.197849191725254E-002,6.149382144212723E-002,-9.596201777458191E-001,-2.551071345806122E-001,-2.197849191725254E-002,6.149382144212723E-002,-9.596201777458191E-001,-2.551071345806122E-001,
9.493666666666668E+008,-2.311771921813488E-002,7.070069015026093E-002,-9.638660550117493E-001,-2.271635979413986E-001,-2.311771921813488E-002,7.070069015026093E-002,-9.638660550117493E-001,-2.271635979413986E-001,
9.577333333333334E+008,-1.986048556864262E-002,8.078535646200180E-002,-9.708846807479858E-001,-2.139198184013367E-001,-1.986048556864262E-002,8.078535646200180E-002,-9.708846807479858E-001,-2.139198184013367E-001,
9.661000000000000E+008,-1.051168423146009E-002,8.703760802745819E-002,-9.703730344772339E-001,-1.731200665235519E-001,-1.051168423146009E-002,8.703760802745819E-002,-9.703730344772339E-001,-1.731200665235519E-001,
9.744666666666668E+008,6.865081377327442E-004,8.682175725698471E-002,-9.700690507888794E-001,-1.631993353366852E-001,6.865081377327442E-004,8.682175725698471E-002,-9.700690507888794E-001,-1.631993353366852E-001,
9.828333333333334E+008,1.023581530898809E-002,8.757825195789337E-002,-9.859998226165772E-001,-1.425548046827316E-001,1.023581530898809E-002,8.757825195789337E-002,-9.859998226165772E-001,-1.425548046827316E-001,
9.912000000000000E+008,2.074120007455349E-002,8.122619986534119E-002,-9.803406596183777E-001,-1.203633621335030E-001,2.074120007455349E-002,8.122619986534119E-002,-9.803406596183777E-001,-1.203633621335030E-001,
9.995666666666668E+008,2.438390441238880E-002,7.324616611003876E-002,-9.953445196151733E-001,-8.449678122997284E-002,2.438390441238880E-002,7.324616611003876E-002,-9.953445196151733E-001,-8.449678122997284E-002,
1.007933333333333E+009,2.833101153373718E-002,6.408549100160599E-002,-1.008217692375183E+000,-6.937786191701889E-002,2.833101153373718E-002,6.408549100160599E-002,-1.008217692375183E+000,-6.937786191701889E-002,
1.016300000000000E+009,2.212638966739178E-002,5.812811851501465E-002,-9.975289106369019E-001,-4.127303510904312E-002,2.212638966739178E-002,5.812811851501465E-002,-9.975289106369019E-001,-4.127303510904312E-002,
1.024666666666667E+009,1.436875853687525E-002,5.412577092647553E-002,-9.918934702873230E-001,-1.395766530185938E-002,1.436875853687525E-002,5.412577092647553E-002,-9.918934702873230E-001,-1.395766530185938E-002,
1.033033333333333E+009,9.336839430034161E-003,5.900103226304054E-002,-9.980846643447876E-001,1.198932807892561E-002,9.336839430034161E-003,5.900103226304054E-002,-9.980846643447876E-001,1.198932807892561E-002,
1.041400000000000E+009,2.619316335767508E-003,6.403885036706924E-002,-9.984434843063355E-001,3.259094059467316E-002,2.619316335767508E-003,6.403885036706924E-002,-9.984434843063355E-001,3.259094059467316E-002,
1.049766666666667E+009,6.147772539407015E-003,7.335022091865540E-002,-9.852225780487061E-001,6.783840060234070E-002,6.147772539407015E-003,7.335022091865540E-002,-9.852225780487061E-001,6.783840060234070E-002,
1.058133333333333E+009,1.086086593568325E-002,8.239773660898209E-002,-9.865980148315430E-001,9.426700323820114E-002,1.086086593568325E-002,8.239773660898209E-002,-9.865980148315430E-001,9.426700323820114E-002,
1.066500000000000E+009,2.310064435005188E-002,8.640660345554352E-002,-1.001797556877136E+000,1.266956180334091E-001,2.310064435005188E-002,8.640660345554352E-002,-1.001797556877136E+000,1.266956180334091E-001,
1.074866666666667E+009,3.659812361001968E-002,8.450587838888168E-002,-9.945856332778931E-001,1.451974809169769E-001,3.659812361001968E-002,8.450587838888168E-002,-9.945856332778931E-001,1.451974809169769E-001,
1.083233333333334E+009,4.572312906384468E-002,7.589716464281082E-002,-9.784567356109619E-001,1.679447293281555E-001,4.572312906384468E-002,7.589716464281082E-002,-9.784567356109619E-001,1.679447293281555E-001,
1.091600000000000E+009,5.239028856158257E-002,6.557408720254898E-002,-9.576032161712647E-001,1.864929348230362E-001,5.239028856158257E-002,6.557408720254898E-002,-9.576032161712647E-001,1.864929348230362E-001,
1.099966666666667E+009,5.143608152866364E-002,5.121390148997307E-002,-9.536257982254028E-001,2.241025418043137E-001,5.143608152866364E-002,5.121390148997307E-002,-9.536257982254028E-001,2.241025418043137E-001,
1.108333333333334E+009,4.338081926107407E-002,4.351372271776199E-002,-9.514998793601990E-001,2.387179285287857E-001,4.338081926107407E-002,4.351372271776199E-002,-9.514998793601990E-001,2.387179285287857E-001,
1.116700000000000E+009,3.223060816526413E-002,4.073650762438774E-002,-9.461511373519898E-001,2.696251273155212E-001,3.223060816526413E-002,4.073650762438774E-002,-9.461511373519898E-001,2.696251273155212E-001,
1.125066666666667E+009,2.130087837576866E-002,4.593345150351524E-002,-9.471021890640259E-001,2.843443453311920E-001,2.130087837576866E-002,4.593345150351524E-002,-9.471021890640259E-001,2.843443453311920E-001,
1.133433333333334E+009,1.378525514155626E-002,5.603906512260437E-002,-9.447945952415466E-001,3.300897479057312E-001,1.378525514155626E-002,5.603906512260437E-002,-9.447945952415466E-001,3.300897479057312E-001,
1.141800000000000E+009,1.275341771543026E-002,6.959442049264908E-002,-9.210305213928223E-001,3.485627174377441E-001,1.275341771543026E-002,6.959442049264908E-002,-9.210305213928223E-001,3.485627174377441E-001,
1.150166666666667E+009,2.219631709158421E-002,8.335115015506744E-002,-9.119772315025330E-001,3.437924683094025E-001,2.219631709158421E-002,8.335115015506744E-002,-9.119772315025330E-001,3.437924683094025E-001,
1.158533333333334E+009,3.901157528162003E-002,9.004512429237366E-002,-9.038329720497131E-001,3.859175145626068E-001,3.901157528162003E-002,9.004512429237366E-002,-9.038329720497131E-001,3.859175145626068E-001,
1.166900000000000E+009,5.871121957898140E-002,8.896888047456741E-002,-8.853782415390015E-001,4.058928489685059E-001,5.871121957898140E-002,8.896888047456741E-002,-8.853782415390015E-001,4.058928489685059E-001,
1.175266666666667E+009,7.455016672611237E-002,7.778719812631607E-002,-8.810124993324280E-001,4.339810907840729E-001,7.455016672611237E-002,7.778719812631607E-002,-8.810124993324280E-001,4.339810907840729E-001,
1.183633333333334E+009,8.707373589277268E-002,6.216341629624367E-002,-8.777996897697449E-001,4.484132826328278E-001,8.707373589277268E-002,6.216341629624367E-002,-8.777996897697449E-001,4.484132826328278E-001,
1.192000000000000E+009,8.646221458911896E-002,4.289243370294571E-002,-8.677083253860474E-001,4.694952368736267E-001,8.646221458911896E-002,4.289243370294571E-002,-8.677083253860474E-001,4.694952368736267E-001,
1.200366666666667E+009,7.676006853580475E-002,2.631349861621857E-002,-8.538354635238648E-001,4.904262423515320E-001,7.676006853580475E-002,2.631349861621857E-002,-8.538354635238648E-001,4.904262423515320E-001,
1.208733333333334E+009,6.195085123181343E-002,1.798963546752930E-002,-8.449562788009644E-001,5.320630669593811E-001,6.195085123181343E-002,1.798963546752930E-002,-8.449562788009644E-001,5.320630669593811E-001,
1.217100000000000E+009,4.590433090925217E-002,1.967126503586769E-002,-8.442061543464661E-001,5.423399209976196E-001,4.590433090925217E-002,1.967126503586769E-002,-8.442061543464661E-001,5.423399209976196E-001,
1.225466666666667E+009,3.411144018173218E-002,3.113115951418877E-002,-8.119329214096069E-001,5.703278183937073E-001,3.411144018173218E-002,3.113115951418877E-002,-8.119329214096069E-001,5.703278183937073E-001,
1.233833333333334E+009,2.985602803528309E-002,4.786605387926102E-002,-8.030641078948975E-001,5.802564620971680E-001,2.985602803528309E-002,4.786605387926102E-002,-8.030641078948975E-001,5.802564620971680E-001,
1.242200000000000E+009,3.845236077904701E-002,6.240131333470345E-002,-7.786036729812622E-001,6.135275363922119E-001,3.845236077904701E-002,6.240131333470345E-002,-7.786036729812622E-001,6.135275363922119E-001,
1.250566666666667E+009,5.253823474049568E-002,7.161213457584381E-002,-7.576470375061035E-001,6.192423105239868E-001,5.253823474049568E-002,7.161213457584381E-002,-7.576470375061035E-001,6.192423105239868E-001,
1.258933333333334E+009,7.339844107627869E-002,7.140970230102539E-002,-7.487854361534119E-001,6.358880996704102E-001,7.339844107627869E-002,7.140970230102539E-002,-7.487854361534119E-001,6.358880996704102E-001,
1.267300000000000E+009,9.280052036046982E-002,5.939903482794762E-002,-7.317746281623840E-001,6.540910005569458E-001,9.280052036046982E-002,5.939903482794762E-002,-7.317746281623840E-001,6.540910005569458E-001,
1.275666666666667E+009,1.007842347025871E-001,4.105082154273987E-002,-7.225789427757263E-001,6.592732667922974E-001,1.007842347025871E-001,4.105082154273987E-002,-7.225789427757263E-001,6.592732667922974E-001,
1.284033333333334E+009,1.030806005001068E-001,1.959593221545219E-002,-7.068289518356323E-001,7.019126415252686E-001,1.030806005001068E-001,1.959593221545219E-002,-7.068289518356323E-001,7.019126415252686E-001,
1.292400000000000E+009,9.300519526004791E-002,2.949767513200641E-004,-6.895757317543030E-001,7.061331272125244E-001,9.300519526004791E-002,2.949767513200641E-004,-6.895757317543030E-001,7.061331272125244E-001,
1.300766666666667E+009,7.366753369569778E-002,-7.854571565985680E-003,-6.690446734428406E-001,7.318161725997925E-001,7.366753369569778E-002,-7.854571565985680E-003,-6.690446734428406E-001,7.318161725997925E-001,
1.309133333333334E+009,5.305343121290207E-002,-6.201728712767363E-003,-6.454533338546753E-001,7.454372644424439E-001,5.305343121290207E-002,-6.201728712767363E-003,-6.454533338546753E-001,7.454372644424439E-001,
1.317500000000000E+009,3.945207968354225E-002,6.182838231325150E-003,-6.313928365707398E-001,7.778197526931763E-001,3.945207968354225E-002,6.182838231325150E-003,-6.313928365707398E-001,7.778197526931763E-001,
1.325866666666667E+009,3.521018102765083E-002,2.328560873866081E-002,-6.092702746391296E-001,7.917528152465820E-001,3.521018102765083E-002,2.328560873866081E-002,-6.092702746391296E-001,7.917528152465820E-001,
1.334233333333334E+009,4.453722015023232E-002,4.105047136545181E-002,-5.898459553718567E-001,7.965812087059021E-001,4.453722015023232E-002,4.105047136545181E-002,-5.898459553718567E-001,7.965812087059021E-001,
1.342600000000000E+009,5.990143865346909E-002,4.982408508658409E-002,-5.702304244041443E-001,8.144232630729675E-001,5.990143865346909E-002,4.982408508658409E-002,-5.702304244041443E-001,8.144232630729675E-001,
1.350966666666667E+009,8.044712245464325E-002,4.580765217542648E-002,-5.464406609535217E-001,8.283925056457520E-001,8.044712245464325E-002,4.580765217542648E-002,-5.464406609535217E-001,8.283925056457520E-001,
1.359333333333334E+009,9.509611874818802E-002,3.141926974058151E-002,-5.329909324645996E-001,8.256465196609497E-001,9.509611874818802E-002,3.141926974058151E-002,-5.329909324645996E-001,8.256465196609497E-001,
1.367700000000000E+009,1.000160500407219E-001,1.124170701950789E-002,-4.985519051551819E-001,8.445436358451843E-001,1.000160500407219E-001,1.124170701950789E-002,-4.985519051551819E-001,8.445436358451843E-001,
1.376066666666667E+009,9.629044681787491E-002,-1.189333759248257E-002,-4.856693446636200E-001,8.520674705505371E-001,9.629044681787491E-002,-1.189333759248257E-002,-4.856693446636200E-001,8.520674705505371E-001,
1.384433333333334E+009,7.880850136280060E-002,-2.689635567367077E-002,-4.728191196918488E-001,8.800284862518311E-001,7.880850136280060E-002,-2.689635567367077E-002,-4.728191196918488E-001,8.800284862518311E-001,
1.392800000000000E+009,5.830387398600578E-002,-2.948015369474888E-002,-4.465513527393341E-001,8.914807438850403E-001,5.830387398600578E-002,-2.948015369474888E-002,-4.465513527393341E-001,8.914807438850403E-001,
1.401166666666667E+009,3.798905760049820E-002,-2.193913049995899E-002,-4.208111763000488E-001,9.002292156219482E-001,3.798905760049820E-002,-2.193913049995899E-002,-4.208111763000488E-001,9.002292156219482E-001,
1.409533333333334E+009,2.560189925134182E-002,-4.644573200494051E-003,-3.891097903251648E-001,9.138376116752625E-001,2.560189925134182E-002,-4.644573200494051E-003,-3.891097903251648E-001,9.138376116752625E-001,
1.417900000000000E+009,2.717356942594051E-002,1.932730525732040E-002,-3.726229369640350E-001,9.107831716537476E-001,2.717356942594051E-002,1.932730525732040E-002,-3.726229369640350E-001,9.107831716537476E-001,
1.426266666666667E+009,3.847901150584221E-002,3.583628684282303E-002,-3.333304822444916E-001,9.347348213195801E-001,3.847901150584221E-002,3.583628684282303E-002,-3.333304822444916E-001,9.347348213195801E-001,
1.434633333333334E+009,5.935138836503029E-002,4.339783638715744E-002,-3.228997588157654E-001,9.292810559272766E-001,5.935138836503029E-002,4.339783638715744E-002,-3.228997588157654E-001,9.292810559272766E-001,
1.443000000000000E+009,7.987941801548004E-002,3.992147743701935E-002,-3.002085983753204E-001,9.362777471542358E-001,7.987941801548004E-002,3.992147743701935E-002,-3.002085983753204E-001,9.362777471542358E-001,
1.451366666666667E+009,9.581669420003891E-002,2.322203107178211E-002,-2.733490169048309E-001,9.413911104202271E-001,9.581669420003891E-002,2.322203107178211E-002,-2.733490169048309E-001,9.413911104202271E-001,
1.459733333333334E+009,1.019499972462654E-001,2.831246703863144E-003,-2.471052855253220E-001,9.637749791145325E-001,1.019499972462654E-001,2.831246703863144E-003,-2.471052855253220E-001,9.637749791145325E-001,
