% Version 1.00
%
%freq[Hz],re:Trc1_S11,im:Trc1_S11,re:Trc2_S21,im:Trc2_S21,re:Trc3_S11,im:Trc3_S11,re:Trc4_S21,im:Trc4_S21,
6.900000000000000E+008,-3.915582969784737E-002,3.314110264182091E-002,-4.940057694911957E-001,-8.573175072669983E-001,-3.915582969784737E-002,3.314110264182091E-002,-4.940057694911957E-001,-8.573175072669983E-001,
6.983666666666666E+008,-3.109658509492874E-002,3.335365280508995E-002,-5.185866355895996E-001,-8.473827242851257E-001,-3.109658509492874E-002,3.335365280508995E-002,-5.185866355895996E-001,-8.473827242851257E-001,
7.067333333333334E+008,-2.486944198608398E-002,2.869782596826553E-002,-5.421832203865051E-001,-8.214281797409058E-001,-2.486944198608398E-002,2.869782596826553E-002,-5.421832203865051E-001,-8.214281797409058E-001,
7.151000000000000E+008,-2.413875609636307E-002,2.085952833294869E-002,-5.773513913154602E-001,-8.198525905609131E-001,-2.413875609636307E-002,2.085952833294869E-002,-5.773513913154602E-001,-8.198525905609131E-001,
7.234666666666666E+008,-2.568033151328564E-002,1.549982465803623E-002,-5.900649428367615E-001,-8.041809201240540E-001,-2.568033151328564E-002,1.549982465803623E-002,-5.900649428367615E-001,-8.041809201240540E-001,
7.318333333333334E+008,-3.295797109603882E-002,1.302944123744965E-002,-6.084527969360352E-001,-7.872968912124634E-001,-3.295797109603882E-002,1.302944123744965E-002,-6.084527969360352E-001,-7.872968912124634E-001,
7.402000000000000E+008,-3.917026892304421E-002,1.469890959560871E-002,-6.195135116577148E-001,-7.625135779380798E-001,-3.917026892304421E-002,1.469890959560871E-002,-6.195135116577148E-001,-7.625135779380798E-001,
7.485666666666666E+008,-4.466021806001663E-002,2.140624821186066E-002,-6.489484310150147E-001,-7.505968809127808E-001,-4.466021806001663E-002,2.140624821186066E-002,-6.489484310150147E-001,-7.505968809127808E-001,
7.569333333333334E+008,-4.883077368140221E-002,3.078182972967625E-002,-6.680000424385071E-001,-7.375022172927856E-001,-4.883077368140221E-002,3.078182972967625E-002,-6.680000424385071E-001,-7.375022172927856E-001,
7.653000000000000E+008,-4.396127536892891E-002,3.936256840825081E-002,-6.753407120704651E-001,-7.176631689071655E-001,-4.396127536892891E-002,3.936256840825081E-002,-6.753407120704651E-001,-7.176631689071655E-001,
7.736666666666666E+008,-3.807937353849411E-002,4.564829543232918E-002,-6.881965994834900E-001,-7.149341106414795E-001,-3.807937353849411E-002,4.564829543232918E-002,-6.881965994834900E-001,-7.149341106414795E-001,
7.820333333333334E+008,-2.979313023388386E-002,4.927216097712517E-002,-7.218160629272461E-001,-6.868218779563904E-001,-2.979313023388386E-002,4.927216097712517E-002,-7.218160629272461E-001,-6.868218779563904E-001,
7.904000000000000E+008,-2.010311186313629E-002,4.787475615739822E-002,-7.312998771667481E-001,-6.687931418418884E-001,-2.010311186313629E-002,4.787475615739822E-002,-7.312998771667481E-001,-6.687931418418884E-001,
7.987666666666666E+008,-1.588102802634239E-002,4.207416251301765E-002,-7.365214824676514E-001,-6.527031064033508E-001,-1.588102802634239E-002,4.207416251301765E-002,-7.365214824676514E-001,-6.527031064033508E-001,
8.071333333333334E+008,-1.341224927455187E-002,3.531608358025551E-002,-7.633194327354431E-001,-6.206917166709900E-001,-1.341224927455187E-002,3.531608358025551E-002,-7.633194327354431E-001,-6.206917166709900E-001,
8.155000000000000E+008,-1.624130830168724E-002,2.803304046392441E-002,-7.898358702659607E-001,-6.104116439819336E-001,-1.624130830168724E-002,2.803304046392441E-002,-7.898358702659607E-001,-6.104116439819336E-001,
8.238666666666666E+008,-2.256839908659458E-002,2.567716687917709E-002,-7.962048649787903E-001,-5.872076749801636E-001,-2.256839908659458E-002,2.567716687917709E-002,-7.962048649787903E-001,-5.872076749801636E-001,
8.322333333333334E+008,-2.815128676593304E-002,2.681012265384197E-002,-8.066417574882507E-001,-5.702379345893860E-001,-2.815128676593304E-002,2.681012265384197E-002,-8.066417574882507E-001,-5.702379345893860E-001,
8.406000000000000E+008,-3.269620984792709E-002,2.985492162406445E-002,-8.185613751411438E-001,-5.466657876968384E-001,-3.269620984792709E-002,2.985492162406445E-002,-8.185613751411438E-001,-5.466657876968384E-001,
8.489666666666668E+008,-3.480257838964462E-002,4.063484072685242E-002,-8.312702775001526E-001,-5.183147788047791E-001,-3.480257838964462E-002,4.063484072685242E-002,-8.312702775001526E-001,-5.183147788047791E-001,
8.573333333333334E+008,-3.331973776221275E-002,4.824079945683479E-002,-8.336657881736755E-001,-4.877534210681915E-001,-3.331973776221275E-002,4.824079945683479E-002,-8.336657881736755E-001,-4.877534210681915E-001,
8.657000000000000E+008,-2.872156538069248E-002,5.586354434490204E-002,-8.613005876541138E-001,-4.923010170459747E-001,-2.872156538069248E-002,5.586354434490204E-002,-8.613005876541138E-001,-4.923010170459747E-001,
8.740666666666668E+008,-2.036118321120739E-002,6.066069006919861E-002,-8.677876591682434E-001,-4.682706296443939E-001,-2.036118321120739E-002,6.066069006919861E-002,-8.677876591682434E-001,-4.682706296443939E-001,
8.824333333333334E+008,-1.263127569109201E-002,6.188336759805679E-002,-8.863403797149658E-001,-4.437333345413208E-001,-1.263127569109201E-002,6.188336759805679E-002,-8.863403797149658E-001,-4.437333345413208E-001,
8.908000000000000E+008,-4.873787052929401E-003,5.800753831863403E-002,-9.001547098159790E-001,-4.259853661060333E-001,-4.873787052929401E-003,5.800753831863403E-002,-9.001547098159790E-001,-4.259853661060333E-001,
8.991666666666668E+008,3.737938532140106E-004,5.181172117590904E-002,-9.006563425064087E-001,-3.990054130554199E-001,3.737938532140106E-004,5.181172117590904E-002,-9.006563425064087E-001,-3.990054130554199E-001,
9.075333333333334E+008,6.928012589924038E-004,4.371206089854240E-002,-9.147067666053772E-001,-3.740269243717194E-001,6.928012589924038E-004,4.371206089854240E-002,-9.147067666053772E-001,-3.740269243717194E-001,
9.159000000000000E+008,-1.702221576124430E-003,3.749243542551994E-002,-9.360583424568176E-001,-3.496439456939697E-001,-1.702221576124430E-003,3.749243542551994E-002,-9.360583424568176E-001,-3.496439456939697E-001,
9.242666666666668E+008,-8.215188048779964E-003,3.724769130349159E-002,-9.277492165565491E-001,-3.274460732936859E-001,-8.215188048779964E-003,3.724769130349159E-002,-9.277492165565491E-001,-3.274460732936859E-001,
9.326333333333334E+008,-1.314797159284353E-002,3.896278887987137E-002,-9.437018632888794E-001,-3.135721385478973E-001,-1.314797159284353E-002,3.896278887987137E-002,-9.437018632888794E-001,-3.135721385478973E-001,
9.410000000000000E+008,-1.752711087465286E-002,4.305507987737656E-002,-9.538679122924805E-001,-2.783937454223633E-001,-1.752711087465286E-002,4.305507987737656E-002,-9.538679122924805E-001,-2.783937454223633E-001,
9.493666666666668E+008,-1.950932294130325E-002,5.220194905996323E-002,-9.597681164741516E-001,-2.480144202709198E-001,-1.950932294130325E-002,5.220194905996323E-002,-9.597681164741516E-001,-2.480144202709198E-001,
9.577333333333334E+008,-1.663339696824551E-002,6.192561611533165E-002,-9.660353660583496E-001,-2.341783195734024E-001,-1.663339696824551E-002,6.192561611533165E-002,-9.660353660583496E-001,-2.341783195734024E-001,
9.661000000000000E+008,-8.562290109694004E-003,6.865891069173813E-002,-9.672126770019531E-001,-1.920380294322968E-001,-8.562290109694004E-003,6.865891069173813E-002,-9.672126770019531E-001,-1.920380294322968E-001,
9.744666666666668E+008,1.363883260637522E-003,6.929691880941391E-002,-9.652282595634460E-001,-1.826868057250977E-001,1.363883260637522E-003,6.929691880941391E-002,-9.652282595634460E-001,-1.826868057250977E-001,
9.828333333333334E+008,1.009937748312950E-002,7.022751122713089E-002,-9.818121790885925E-001,-1.628903895616531E-001,1.009937748312950E-002,7.022751122713089E-002,-9.818121790885925E-001,-1.628903895616531E-001,
9.912000000000000E+008,2.019534260034561E-002,6.366536766290665E-002,-9.795367717742920E-001,-1.405749320983887E-001,2.019534260034561E-002,6.366536766290665E-002,-9.795367717742920E-001,-1.405749320983887E-001,
9.995666666666668E+008,2.384393475949764E-002,5.554939433932304E-002,-9.923868179321289E-001,-1.037868410348892E-001,2.384393475949764E-002,5.554939433932304E-002,-9.923868179321289E-001,-1.037868410348892E-001,
1.007933333333333E+009,2.734494023025036E-002,4.552817344665527E-002,-1.005874633789063E+000,-8.680623024702072E-002,2.734494023025036E-002,4.552817344665527E-002,-1.005874633789063E+000,-8.680623024702072E-002,
1.016300000000000E+009,2.128833159804344E-002,3.893234208226204E-002,-9.925316572189331E-001,-6.107607111334801E-002,2.128833159804344E-002,3.893234208226204E-002,-9.925316572189331E-001,-6.107607111334801E-002,
1.024666666666667E+009,1.393723394721746E-002,3.456619381904602E-002,-9.890294671058655E-001,-3.450968861579895E-002,1.393723394721746E-002,3.456619381904602E-002,-9.890294671058655E-001,-3.450968861579895E-002,
1.033033333333333E+009,8.851297199726105E-003,3.879006579518318E-002,-9.954294562339783E-001,-8.672106079757214E-003,8.851297199726105E-003,3.879006579518318E-002,-9.954294562339783E-001,-8.672106079757214E-003,
1.041400000000000E+009,2.014735946431756E-003,4.364857077598572E-002,-9.966281652450562E-001,1.220261864364147E-002,2.014735946431756E-003,4.364857077598572E-002,-9.966281652450562E-001,1.220261864364147E-002,
1.049766666666667E+009,4.541429225355387E-003,5.326113849878311E-002,-9.827886223793030E-001,4.821652173995972E-002,4.541429225355387E-003,5.326113849878311E-002,-9.827886223793030E-001,4.821652173995972E-002,
1.058133333333333E+009,8.141294121742249E-003,6.249852478504181E-002,-9.849265813827515E-001,7.078310102224350E-002,8.141294121742249E-003,6.249852478504181E-002,-9.849265813827515E-001,7.078310102224350E-002,
1.066500000000000E+009,1.871397346258164E-002,6.708183139562607E-002,-1.000528216362000E+000,1.045521795749664E-001,1.871397346258164E-002,6.708183139562607E-002,-1.000528216362000E+000,1.045521795749664E-001,
1.074866666666667E+009,3.137047961354256E-002,6.617339700460434E-002,-9.946959614753723E-001,1.257705986499786E-001,3.137047961354256E-002,6.617339700460434E-002,-9.946959614753723E-001,1.257705986499786E-001,
1.083233333333334E+009,3.948277235031128E-002,5.824730545282364E-002,-9.778094887733460E-001,1.465612053871155E-001,3.948277235031128E-002,5.824730545282364E-002,-9.778094887733460E-001,1.465612053871155E-001,
1.091600000000000E+009,4.564087092876434E-002,4.761850833892822E-002,-9.610715508460999E-001,1.666186004877091E-001,4.564087092876434E-002,4.761850833892822E-002,-9.610715508460999E-001,1.666186004877091E-001,
1.099966666666667E+009,4.464648663997650E-002,3.364884108304977E-002,-9.566645026206970E-001,2.043176889419556E-001,4.464648663997650E-002,3.364884108304977E-002,-9.566645026206970E-001,2.043176889419556E-001,
1.108333333333334E+009,3.647615388035774E-002,2.491174265742302E-002,-9.559954404830933E-001,2.126868963241577E-001,3.647615388035774E-002,2.491174265742302E-002,-9.559954404830933E-001,2.126868963241577E-001,
1.116700000000000E+009,2.594293653964996E-002,2.082417905330658E-002,-9.495796561241150E-001,2.458832561969757E-001,2.594293653964996E-002,2.082417905330658E-002,-9.495796561241150E-001,2.458832561969757E-001,
1.125066666666667E+009,1.466544438153505E-002,2.473952062427998E-002,-9.506183862686157E-001,2.626852691173554E-001,1.466544438153505E-002,2.473952062427998E-002,-9.506183862686157E-001,2.626852691173554E-001,
1.133433333333334E+009,6.485279183834791E-003,3.423511609435082E-002,-9.487487673759460E-001,3.077745735645294E-001,6.485279183834791E-003,3.423511609435082E-002,-9.487487673759460E-001,3.077745735645294E-001,
1.141800000000000E+009,4.704215098172426E-003,4.758772253990173E-002,-9.259679913520813E-001,3.220802843570709E-001,4.704215098172426E-003,4.758772253990173E-002,-9.259679913520813E-001,3.220802843570709E-001,
1.150166666666667E+009,1.313990447670221E-002,6.245270743966103E-002,-9.176562428474426E-001,3.229608535766602E-001,1.313990447670221E-002,6.245270743966103E-002,-9.176562428474426E-001,3.229608535766602E-001,
1.158533333333334E+009,2.843190729618073E-002,7.022818177938461E-002,-9.106565117835999E-001,3.638451397418976E-001,2.843190729618073E-002,7.022818177938461E-002,-9.106565117835999E-001,3.638451397418976E-001,
1.166900000000000E+009,4.705282300710678E-002,7.094679027795792E-002,-8.947955369949341E-001,3.841528892517090E-001,4.705282300710678E-002,7.094679027795792E-002,-8.947955369949341E-001,3.841528892517090E-001,
1.175266666666667E+009,6.268300116062164E-002,6.081950664520264E-002,-8.893144726753235E-001,4.142567813396454E-001,6.268300116062164E-002,6.081950664520264E-002,-8.893144726753235E-001,4.142567813396454E-001,
1.183633333333334E+009,7.433348894119263E-002,4.640710353851318E-002,-8.870441317558289E-001,4.264986217021942E-001,7.433348894119263E-002,4.640710353851318E-002,-8.870441317558289E-001,4.264986217021942E-001,
1.192000000000000E+009,7.421467453241348E-002,2.763343229889870E-002,-8.751625418663025E-001,4.486272633075714E-001,7.421467453241348E-002,2.763343229889870E-002,-8.751625418663025E-001,4.486272633075714E-001,
1.200366666666667E+009,6.467296928167343E-002,1.054767519235611E-002,-8.628647923469544E-001,4.704155027866364E-001,6.467296928167343E-002,1.054767519235611E-002,-8.628647923469544E-001,4.704155027866364E-001,
1.208733333333334E+009,4.950114339590073E-002,9.010120993480086E-004,-8.565306067466736E-001,5.123121738433838E-001,4.950114339590073E-002,9.010120993480086E-004,-8.565306067466736E-001,5.123121738433838E-001,
1.217100000000000E+009,3.321179002523422E-002,1.388652832247317E-003,-8.525142073631287E-001,5.217756628990173E-001,3.321179002523422E-002,1.388652832247317E-003,-8.525142073631287E-001,5.217756628990173E-001,
1.225466666666667E+009,2.026725374162197E-002,1.146049983799458E-002,-8.206651806831360E-001,5.464507341384888E-001,2.026725374162197E-002,1.146049983799458E-002,-8.206651806831360E-001,5.464507341384888E-001,
1.233833333333334E+009,1.527549885213375E-002,2.785249054431915E-002,-8.163246512413025E-001,5.579580664634705E-001,1.527549885213375E-002,2.785249054431915E-002,-8.163246512413025E-001,5.579580664634705E-001,
1.242200000000000E+009,2.293418347835541E-002,4.271135479211807E-002,-7.916416525840759E-001,5.921598076820374E-001,2.293418347835541E-002,4.271135479211807E-002,-7.916416525840759E-001,5.921598076820374E-001,
1.250566666666667E+009,3.561380878090859E-002,5.367867276072502E-002,-7.703317403793335E-001,5.978024005889893E-001,3.561380878090859E-002,5.367867276072502E-002,-7.703317403793335E-001,5.978024005889893E-001,
1.258933333333334E+009,5.602469667792320E-002,5.491705611348152E-002,-7.654128670692444E-001,6.205352544784546E-001,5.602469667792320E-002,5.491705611348152E-002,-7.654128670692444E-001,6.205352544784546E-001,
1.267300000000000E+009,7.530470192432404E-002,4.515009373426437E-002,-7.460703253746033E-001,6.353138089179993E-001,7.530470192432404E-002,4.515009373426437E-002,-7.460703253746033E-001,6.353138089179993E-001,
1.275666666666667E+009,8.466888219118118E-002,2.778097428381443E-002,-7.334802150726318E-001,6.433317065238953E-001,8.466888219118118E-002,2.778097428381443E-002,-7.334802150726318E-001,6.433317065238953E-001,
1.284033333333334E+009,8.692973852157593E-002,6.937605328857899E-003,-7.179465293884277E-001,6.852314472198486E-001,8.692973852157593E-002,6.937605328857899E-003,-7.179465293884277E-001,6.852314472198486E-001,
1.292400000000000E+009,7.642342150211334E-002,-1.223008614033461E-002,-7.055252194404602E-001,6.889747977256775E-001,7.642342150211334E-002,-1.223008614033461E-002,-7.055252194404602E-001,6.889747977256775E-001,
1.300766666666667E+009,5.652264133095741E-002,-2.147707529366016E-002,-6.834443211555481E-001,7.130450010299683E-001,5.652264133095741E-002,-2.147707529366016E-002,-6.834443211555481E-001,7.130450010299683E-001,
1.309133333333334E+009,3.567507117986679E-002,-2.079243212938309E-002,-6.589691042900085E-001,7.273063659667969E-001,3.567507117986679E-002,-2.079243212938309E-002,-6.589691042900085E-001,7.273063659667969E-001,
1.317500000000000E+009,2.046443894505501E-002,-9.535453282296658E-003,-6.479921340942383E-001,7.577240467071533E-001,2.046443894505501E-002,-9.535453282296658E-003,-6.479921340942383E-001,7.577240467071533E-001,
1.325866666666667E+009,1.493865810334683E-002,7.050827611237764E-003,-6.283966898918152E-001,7.729268074035645E-001,1.493865810334683E-002,7.050827611237764E-003,-6.283966898918152E-001,7.729268074035645E-001,
1.334233333333334E+009,2.240297757089138E-002,2.503486722707748E-002,-6.103656888008118E-001,7.791966199874878E-001,2.240297757089138E-002,2.503486722707748E-002,-6.103656888008118E-001,7.791966199874878E-001,
1.342600000000000E+009,3.776979818940163E-002,3.479047864675522E-002,-5.927793383598328E-001,7.969107627868652E-001,3.776979818940163E-002,3.479047864675522E-002,-5.927793383598328E-001,7.969107627868652E-001,
1.350966666666667E+009,5.808273702859879E-002,3.301525488495827E-002,-5.676125884056091E-001,8.099435567855835E-001,5.808273702859879E-002,3.301525488495827E-002,-5.676125884056091E-001,8.099435567855835E-001,
1.359333333333334E+009,7.347267121076584E-002,2.046097815036774E-002,-5.543490052223206E-001,8.096489906311035E-001,7.347267121076584E-002,2.046097815036774E-002,-5.543490052223206E-001,8.096489906311035E-001,
1.367700000000000E+009,8.008336275815964E-002,1.317200600169599E-003,-5.200762152671814E-001,8.291235566139221E-001,8.008336275815964E-002,1.317200600169599E-003,-5.200762152671814E-001,8.291235566139221E-001,
1.376066666666667E+009,7.665827125310898E-002,-2.064250968396664E-002,-5.047016143798828E-001,8.383686542510986E-001,7.665827125310898E-002,-2.064250968396664E-002,-5.047016143798828E-001,8.383686542510986E-001,
1.384433333333334E+009,5.965477228164673E-002,-3.648282960057259E-002,-4.897717833518982E-001,8.693490028381348E-001,5.965477228164673E-002,-3.648282960057259E-002,-4.897717833518982E-001,8.693490028381348E-001,
1.392800000000000E+009,3.835119307041168E-002,-3.946717083454132E-002,-4.693963229656220E-001,8.776440620422363E-001,3.835119307041168E-002,-3.946717083454132E-002,-4.693963229656220E-001,8.776440620422363E-001,
1.401166666666667E+009,1.669294573366642E-002,-3.290387988090515E-002,-4.427522122859955E-001,8.849065899848938E-001,1.669294573366642E-002,-3.290387988090515E-002,-4.427522122859955E-001,8.849065899848938E-001,
1.409533333333334E+009,1.993956742808223E-003,-1.564155705273151E-002,-4.139933586120606E-001,9.000055193901062E-001,1.993956742808223E-003,-1.564155705273151E-002,-4.139933586120606E-001,9.000055193901062E-001,
1.417900000000000E+009,1.212021335959435E-003,7.478227373212576E-003,-3.948562145233154E-001,8.959528207778931E-001,1.212021335959435E-003,7.478227373212576E-003,-3.948562145233154E-001,8.959528207778931E-001,
1.426266666666667E+009,1.098153833299875E-002,2.485059760510922E-002,-3.586320281028748E-001,9.240482449531555E-001,1.098153833299875E-002,2.485059760510922E-002,-3.586320281028748E-001,9.240482449531555E-001,
1.434633333333334E+009,3.097446076571941E-002,3.423171117901802E-002,-3.496489226818085E-001,9.186080098152161E-001,3.097446076571941E-002,3.423171117901802E-002,-3.496489226818085E-001,9.186080098152161E-001,
1.443000000000000E+009,5.175415799021721E-002,3.239838033914566E-002,-3.252862691879273E-001,9.269331097602844E-001,5.175415799021721E-002,3.239838033914566E-002,-3.252862691879273E-001,9.269331097602844E-001,
1.451366666666667E+009,6.869076937437058E-002,1.781123876571655E-002,-2.988520860671997E-001,9.279168844223023E-001,6.869076937437058E-002,1.781123876571655E-002,-2.988520860671997E-001,9.279168844223023E-001,
1.459733333333334E+009,7.628501951694489E-002,-1.794914016500115E-003,-2.732992768287659E-001,9.554249644279480E-001,7.628501951694489E-002,-1.794914016500115E-003,-2.732992768287659E-001,9.554249644279480E-001,
