% Version 1.00
%
%freq[Hz],re:Trc1_S11,im:Trc1_S11,re:Trc2_S21,im:Trc2_S21,re:Trc3_S11,im:Trc3_S11,re:Trc4_S21,im:Trc4_S21,
6.900000000000000E+008,-4.526630416512489E-002,3.468526760116220E-003,-4.749962389469147E-001,-8.349360227584839E-001,-4.526630416512489E-002,3.468526760116220E-003,-4.749962389469147E-001,-8.349360227584839E-001,
6.983666666666666E+008,-3.785955160856247E-002,5.042671691626310E-003,-5.007784366607666E-001,-8.267483711242676E-001,-3.785955160856247E-002,5.042671691626310E-003,-5.007784366607666E-001,-8.267483711242676E-001,
7.067333333333334E+008,-3.225718438625336E-002,1.200092723593116E-003,-5.232713222503662E-001,-8.015090227127075E-001,-3.225718438625336E-002,1.200092723593116E-003,-5.232713222503662E-001,-8.015090227127075E-001,
7.151000000000000E+008,-3.238351270556450E-002,-5.755660589784384E-003,-5.583850145339966E-001,-8.003449440002441E-001,-3.238351270556450E-002,-5.755660589784384E-003,-5.583850145339966E-001,-8.003449440002441E-001,
7.234666666666666E+008,-3.432063385844231E-002,-1.091043837368488E-002,-5.712260603904724E-001,-7.860754728317261E-001,-3.432063385844231E-002,-1.091043837368488E-002,-5.712260603904724E-001,-7.860754728317261E-001,
7.318333333333334E+008,-4.166525602340698E-002,-1.284166332334280E-002,-5.885753631591797E-001,-7.697710394859314E-001,-4.166525602340698E-002,-1.284166332334280E-002,-5.885753631591797E-001,-7.697710394859314E-001,
7.402000000000000E+008,-4.820630699396133E-002,-1.089124474674463E-002,-5.996531248092651E-001,-7.449156641960144E-001,-4.820630699396133E-002,-1.089124474674463E-002,-5.996531248092651E-001,-7.449156641960144E-001,
7.485666666666666E+008,-5.391113460063934E-002,-4.378539510071278E-003,-6.284962296485901E-001,-7.323784232139587E-001,-5.391113460063934E-002,-4.378539510071278E-003,-6.284962296485901E-001,-7.323784232139587E-001,
7.569333333333334E+008,-5.832438543438911E-002,4.763768054544926E-003,-6.467799544334412E-001,-7.202703356742859E-001,-5.832438543438911E-002,4.763768054544926E-003,-6.467799544334412E-001,-7.202703356742859E-001,
7.653000000000000E+008,-5.384999141097069E-002,1.366347260773182E-002,-6.538390517234802E-001,-7.011978626251221E-001,-5.384999141097069E-002,1.366347260773182E-002,-6.538390517234802E-001,-7.011978626251221E-001,
7.736666666666666E+008,-4.854647815227509E-002,2.034193836152554E-002,-6.667980551719666E-001,-6.983826160430908E-001,-4.854647815227509E-002,2.034193836152554E-002,-6.667980551719666E-001,-6.983826160430908E-001,
7.820333333333334E+008,-4.100683331489563E-002,2.454759925603867E-002,-6.996917724609375E-001,-6.718201041221619E-001,-4.100683331489563E-002,2.454759925603867E-002,-6.996917724609375E-001,-6.718201041221619E-001,
7.904000000000000E+008,-3.203923627734184E-002,2.403937838971615E-002,-7.090165019035339E-001,-6.539368629455566E-001,-3.203923627734184E-002,2.403937838971615E-002,-7.090165019035339E-001,-6.539368629455566E-001,
7.987666666666666E+008,-2.904553711414337E-002,1.925281248986721E-002,-7.147449851036072E-001,-6.390521526336670E-001,-2.904553711414337E-002,1.925281248986721E-002,-7.147449851036072E-001,-6.390521526336670E-001,
8.071333333333334E+008,-2.707630582153797E-002,1.274845469743013E-002,-7.412142157554627E-001,-6.080612540245056E-001,-2.707630582153797E-002,1.274845469743013E-002,-7.412142157554627E-001,-6.080612540245056E-001,
8.155000000000000E+008,-3.015512041747570E-002,6.750410422682762E-003,-7.674552798271179E-001,-5.983912348747253E-001,-3.015512041747570E-002,6.750410422682762E-003,-7.674552798271179E-001,-5.983912348747253E-001,
8.238666666666666E+008,-3.683566674590111E-002,4.685463383793831E-003,-7.745597362518311E-001,-5.759899020195007E-001,-3.683566674590111E-002,4.685463383793831E-003,-7.745597362518311E-001,-5.759899020195007E-001,
8.322333333333334E+008,-4.259884357452393E-002,6.159324198961258E-003,-7.841901779174805E-001,-5.580239295959473E-001,-4.259884357452393E-002,6.159324198961258E-003,-7.841901779174805E-001,-5.580239295959473E-001,
8.406000000000000E+008,-4.739933088421822E-002,9.219572879374027E-003,-7.958742976188660E-001,-5.357930660247803E-001,-4.739933088421822E-002,9.219572879374027E-003,-7.958742976188660E-001,-5.357930660247803E-001,
8.489666666666668E+008,-4.977563768625259E-002,2.002578787505627E-002,-8.075608611106873E-001,-5.084385871887207E-001,-4.977563768625259E-002,2.002578787505627E-002,-8.075608611106873E-001,-5.084385871887207E-001,
8.573333333333334E+008,-4.823297634720802E-002,2.774875424802303E-002,-8.106921911239624E-001,-4.790338277816773E-001,-4.823297634720802E-002,2.774875424802303E-002,-8.106921911239624E-001,-4.790338277816773E-001,
8.657000000000000E+008,-4.358723759651184E-002,3.590812534093857E-002,-8.378817439079285E-001,-4.826942384243012E-001,-4.358723759651184E-002,3.590812534093857E-002,-8.378817439079285E-001,-4.826942384243012E-001,
8.740666666666668E+008,-3.591070696711540E-002,4.118202254176140E-002,-8.444457650184631E-001,-4.588626027107239E-001,-3.591070696711540E-002,4.118202254176140E-002,-8.444457650184631E-001,-4.588626027107239E-001,
8.824333333333334E+008,-2.846223488450050E-002,4.304834082722664E-002,-8.625940680503845E-001,-4.368024468421936E-001,-2.846223488450050E-002,4.304834082722664E-002,-8.625940680503845E-001,-4.368024468421936E-001,
8.908000000000000E+008,-2.124728076159954E-002,4.033859819173813E-002,-8.763898015022278E-001,-4.198755621910095E-001,-2.124728076159954E-002,4.033859819173813E-002,-8.763898015022278E-001,-4.198755621910095E-001,
8.991666666666668E+008,-1.642925292253494E-002,3.530795499682427E-002,-8.779832124710083E-001,-3.936618268489838E-001,-1.642925292253494E-002,3.530795499682427E-002,-8.779832124710083E-001,-3.936618268489838E-001,
9.075333333333334E+008,-1.686142943799496E-002,2.818741463124752E-002,-8.916031122207642E-001,-3.674144446849823E-001,-1.686142943799496E-002,2.818741463124752E-002,-8.916031122207642E-001,-3.674144446849823E-001,
9.159000000000000E+008,-1.913983933627605E-002,2.255443856120110E-002,-9.139587283134460E-001,-3.440290689468384E-001,-1.913983933627605E-002,2.255443856120110E-002,-9.139587283134460E-001,-3.440290689468384E-001,
9.242666666666668E+008,-2.587616071105003E-002,2.279554679989815E-002,-9.051783084869385E-001,-3.226068615913391E-001,-2.587616071105003E-002,2.279554679989815E-002,-9.051783084869385E-001,-3.226068615913391E-001,
9.326333333333334E+008,-3.080432116985321E-002,2.484906278550625E-002,-9.217546582221985E-001,-3.087789118289948E-001,-3.080432116985321E-002,2.484906278550625E-002,-9.217546582221985E-001,-3.087789118289948E-001,
9.410000000000000E+008,-3.510194271802902E-002,2.886963821947575E-002,-9.309889674186707E-001,-2.746667563915253E-001,-3.510194271802902E-002,2.886963821947575E-002,-9.309889674186707E-001,-2.746667563915253E-001,
9.493666666666668E+008,-3.720422089099884E-002,3.806257992982864E-002,-9.363878965377808E-001,-2.442039847373962E-001,-3.720422089099884E-002,3.806257992982864E-002,-9.363878965377808E-001,-2.442039847373962E-001,
9.577333333333334E+008,-3.446086868643761E-002,4.775149002671242E-002,-9.432780146598816E-001,-2.316468656063080E-001,-3.446086868643761E-002,4.775149002671242E-002,-9.432780146598816E-001,-2.316468656063080E-001,
9.661000000000000E+008,-2.639202773571014E-002,5.464690178632736E-002,-9.437634348869324E-001,-1.910095363855362E-001,-2.639202773571014E-002,5.464690178632736E-002,-9.437634348869324E-001,-1.910095363855362E-001,
9.744666666666668E+008,-1.650034822523594E-002,5.591672658920288E-002,-9.436625242233276E-001,-1.806236356496811E-001,-1.650034822523594E-002,5.591672658920288E-002,-9.436625242233276E-001,-1.806236356496811E-001,
9.828333333333334E+008,-8.235669694840908E-003,5.750208348035812E-002,-9.588899612426758E-001,-1.623608916997910E-001,-8.235669694840908E-003,5.750208348035812E-002,-9.588899612426758E-001,-1.623608916997910E-001,
9.912000000000000E+008,1.683539361692965E-003,5.207665264606476E-002,-9.573862552642822E-001,-1.403649598360062E-001,1.683539361692965E-003,5.207665264606476E-002,-9.573862552642822E-001,-1.403649598360062E-001,
9.995666666666668E+008,5.022893659770489E-003,4.494167864322662E-002,-9.706658124923706E-001,-1.037549525499344E-001,5.022893659770489E-003,4.494167864322662E-002,-9.706658124923706E-001,-1.037549525499344E-001,
1.007933333333333E+009,8.199153468012810E-003,3.626526147127152E-002,-9.858937859535217E-001,-8.839665353298187E-002,8.199153468012810E-003,3.626526147127152E-002,-9.858937859535217E-001,-8.839665353298187E-002,
1.016300000000000E+009,2.157404087483883E-003,3.054755926132202E-002,-9.714263677597046E-001,-6.133491545915604E-002,2.157404087483883E-003,3.054755926132202E-002,-9.714263677597046E-001,-6.133491545915604E-002,
1.024666666666667E+009,-5.267614498734474E-003,2.655486762523651E-002,-9.685273766517639E-001,-3.610496222972870E-002,-5.267614498734474E-003,2.655486762523651E-002,-9.685273766517639E-001,-3.610496222972870E-002,
1.033033333333333E+009,-1.034441683441401E-002,3.105331957340241E-002,-9.745755791664124E-001,-9.810513816773891E-003,-1.034441683441401E-002,3.105331957340241E-002,-9.745755791664124E-001,-9.810513816773891E-003,
1.041400000000000E+009,-1.715522632002831E-002,3.586404398083687E-002,-9.766306281089783E-001,1.097827963531017E-002,-1.715522632002831E-002,3.586404398083687E-002,-9.766306281089783E-001,1.097827963531017E-002,
1.049766666666667E+009,-1.446015480905771E-002,4.582873359322548E-002,-9.627611041069031E-001,4.599593207240105E-002,-1.446015480905771E-002,4.582873359322548E-002,-9.627611041069031E-001,4.599593207240105E-002,
1.058133333333333E+009,-1.105365622788668E-002,5.505660176277161E-002,-9.642956852912903E-001,6.739167124032974E-002,-1.105365622788668E-002,5.505660176277161E-002,-9.642956852912903E-001,6.739167124032974E-002,
1.066500000000000E+009,-3.399968845769763E-004,5.990267172455788E-002,-9.797005057334900E-001,1.005196943879128E-001,-3.399968845769763E-004,5.990267172455788E-002,-9.797005057334900E-001,1.005196943879128E-001,
1.074866666666667E+009,1.251746341586113E-002,5.986275523900986E-002,-9.748482108116150E-001,1.212964504957199E-001,1.251746341586113E-002,5.986275523900986E-002,-9.748482108116150E-001,1.212964504957199E-001,
1.083233333333334E+009,2.065557986497879E-002,5.278401821851730E-002,-9.583833217620850E-001,1.412188857793808E-001,2.065557986497879E-002,5.278401821851730E-002,-9.583833217620850E-001,1.412188857793808E-001,
1.091600000000000E+009,2.705964818596840E-002,4.337929934263229E-002,-9.422176480293274E-001,1.610940843820572E-001,2.705964818596840E-002,4.337929934263229E-002,-9.422176480293274E-001,1.610940843820572E-001,
1.099966666666667E+009,2.663729339838028E-002,3.054883517324925E-002,-9.385806918144226E-001,1.990075707435608E-001,2.663729339838028E-002,3.054883517324925E-002,-9.385806918144226E-001,1.990075707435608E-001,
1.108333333333334E+009,1.876587979495525E-002,2.273159287869930E-002,-9.379442930221558E-001,2.062725871801376E-001,1.876587979495525E-002,2.273159287869930E-002,-9.379442930221558E-001,2.062725871801376E-001,
1.116700000000000E+009,8.706852793693543E-003,1.931739598512650E-002,-9.323084950447083E-001,2.409433275461197E-001,8.706852793693543E-003,1.931739598512650E-002,-9.323084950447083E-001,2.409433275461197E-001,
1.125066666666667E+009,-2.475563902407885E-003,2.368320710957050E-002,-9.326502680778503E-001,2.574300467967987E-001,-2.475563902407885E-003,2.368320710957050E-002,-9.326502680778503E-001,2.574300467967987E-001,
1.133433333333334E+009,-1.045343186706305E-002,3.294362872838974E-002,-9.310373067855835E-001,3.010856807231903E-001,-1.045343186706305E-002,3.294362872838974E-002,-9.310373067855835E-001,3.010856807231903E-001,
1.141800000000000E+009,-1.233378238976002E-002,4.622457176446915E-002,-9.084646701812744E-001,3.158522546291351E-001,-1.233378238976002E-002,4.622457176446915E-002,-9.084646701812744E-001,3.158522546291351E-001,
1.150166666666667E+009,-3.783654188737273E-003,6.059955805540085E-002,-8.989261388778687E-001,3.160656988620758E-001,-3.783654188737273E-003,6.059955805540085E-002,-8.989261388778687E-001,3.160656988620758E-001,
1.158533333333334E+009,1.101652160286903E-002,6.821744889020920E-002,-8.928028941154480E-001,3.560010492801666E-001,1.101652160286903E-002,6.821744889020920E-002,-8.928028941154480E-001,3.560010492801666E-001,
1.166900000000000E+009,2.936581522226334E-002,6.937543302774429E-002,-8.781613111495972E-001,3.757105469703674E-001,2.936581522226334E-002,6.937543302774429E-002,-8.781613111495972E-001,3.757105469703674E-001,
1.175266666666667E+009,4.494814202189446E-002,5.993841215968132E-002,-8.733234405517578E-001,4.044550359249115E-001,4.494814202189446E-002,5.993841215968132E-002,-8.733234405517578E-001,4.044550359249115E-001,
1.183633333333334E+009,5.708604305982590E-002,4.660373926162720E-002,-8.724159598350525E-001,4.170785546302795E-001,5.708604305982590E-002,4.660373926162720E-002,-8.724159598350525E-001,4.170785546302795E-001,
1.192000000000000E+009,5.774900317192078E-002,2.894606627523899E-002,-8.607586026191711E-001,4.397467672824860E-001,5.774900317192078E-002,2.894606627523899E-002,-8.607586026191711E-001,4.397467672824860E-001,
1.200366666666667E+009,4.882254451513290E-002,1.290796324610710E-002,-8.482552170753479E-001,4.618895649909973E-001,4.882254451513290E-002,1.290796324610710E-002,-8.482552170753479E-001,4.618895649909973E-001,
1.208733333333334E+009,3.435526043176651E-002,4.222372081130743E-003,-8.423292040824890E-001,5.038705468177795E-001,3.435526043176651E-002,4.222372081130743E-003,-8.423292040824890E-001,5.038705468177795E-001,
1.217100000000000E+009,1.896147988736630E-002,5.387285724282265E-003,-8.383298516273499E-001,5.151287913322449E-001,1.896147988736630E-002,5.387285724282265E-003,-8.383298516273499E-001,5.151287913322449E-001,
1.225466666666667E+009,6.168152671307325E-003,1.567772589623928E-002,-8.059276342391968E-001,5.383234620094299E-001,6.168152671307325E-003,1.567772589623928E-002,-8.059276342391968E-001,5.383234620094299E-001,
1.233833333333334E+009,1.484285807237029E-003,3.196852654218674E-002,-8.011672496795654E-001,5.497381091117859E-001,1.484285807237029E-003,3.196852654218674E-002,-8.011672496795654E-001,5.497381091117859E-001,
1.242200000000000E+009,9.190183132886887E-003,4.643584415316582E-002,-7.765990495681763E-001,5.830273628234863E-001,9.190183132886887E-003,4.643584415316582E-002,-7.765990495681763E-001,5.830273628234863E-001,
1.250566666666667E+009,2.159692347049713E-002,5.712431296706200E-002,-7.551543116569519E-001,5.889906287193298E-001,2.159692347049713E-002,5.712431296706200E-002,-7.551543116569519E-001,5.889906287193298E-001,
1.258933333333334E+009,4.200490564107895E-002,5.812980607151985E-002,-7.510379552841187E-001,6.100038886070252E-001,4.200490564107895E-002,5.812980607151985E-002,-7.510379552841187E-001,6.100038886070252E-001,
1.267300000000000E+009,6.135293468832970E-002,4.860097914934158E-002,-7.331945896148682E-001,6.245113015174866E-001,6.135293468832970E-002,4.860097914934158E-002,-7.331945896148682E-001,6.245113015174866E-001,
1.275666666666667E+009,7.079607248306274E-002,3.164055943489075E-002,-7.215769290924072E-001,6.323847770690918E-001,7.079607248306274E-002,3.164055943489075E-002,-7.215769290924072E-001,6.323847770690918E-001,
1.284033333333334E+009,7.386872917413712E-002,1.164770126342773E-002,-7.060730457305908E-001,6.748295426368713E-001,7.386872917413712E-002,1.164770126342773E-002,-7.060730457305908E-001,6.748295426368713E-001,
1.292400000000000E+009,6.420320272445679E-002,-6.635725498199463E-003,-6.941147446632385E-001,6.789946556091309E-001,6.420320272445679E-002,-6.635725498199463E-003,-6.941147446632385E-001,6.789946556091309E-001,
1.300766666666667E+009,4.536510631442070E-002,-1.517327502369881E-002,-6.722978353500366E-001,7.036521434783936E-001,4.536510631442070E-002,-1.517327502369881E-002,-6.722978353500366E-001,7.036521434783936E-001,
1.309133333333334E+009,2.526900544762611E-002,-1.395100448280573E-002,-6.483510732650757E-001,7.192636132240295E-001,2.526900544762611E-002,-1.395100448280573E-002,-6.483510732650757E-001,7.192636132240295E-001,
1.317500000000000E+009,1.068972703069449E-002,-2.578844083473086E-003,-6.354178786277771E-001,7.489009499549866E-001,1.068972703069449E-002,-2.578844083473086E-003,-6.354178786277771E-001,7.489009499549866E-001,
1.325866666666667E+009,5.401968024671078E-003,1.398019958287478E-002,-6.156684756278992E-001,7.633829712867737E-001,5.401968024671078E-003,1.398019958287478E-002,-6.156684756278992E-001,7.633829712867737E-001,
1.334233333333334E+009,1.295054238289595E-002,3.183863312005997E-002,-5.975824594497681E-001,7.693854570388794E-001,1.295054238289595E-002,3.183863312005997E-002,-5.975824594497681E-001,7.693854570388794E-001,
1.342600000000000E+009,2.798617258667946E-002,4.135937243700028E-002,-5.804949402809143E-001,7.860981822013855E-001,2.798617258667946E-002,4.135937243700028E-002,-5.804949402809143E-001,7.860981822013855E-001,
1.350966666666667E+009,4.793997481465340E-002,3.953222557902336E-002,-5.560818910598755E-001,7.975157499313355E-001,4.793997481465340E-002,3.953222557902336E-002,-5.560818910598755E-001,7.975157499313355E-001,
1.359333333333334E+009,6.330812722444534E-002,2.699538692831993E-002,-5.439629554748535E-001,7.979114055633545E-001,6.330812722444534E-002,2.699538692831993E-002,-5.439629554748535E-001,7.979114055633545E-001,
1.367700000000000E+009,7.022136449813843E-002,8.007962256669998E-003,-5.103912949562073E-001,8.182989954948425E-001,7.022136449813843E-002,8.007962256669998E-003,-5.103912949562073E-001,8.182989954948425E-001,
1.376066666666667E+009,6.758390367031097E-002,-1.342516764998436E-002,-4.957339763641357E-001,8.274644613265991E-001,6.758390367031097E-002,-1.342516764998436E-002,-4.957339763641357E-001,8.274644613265991E-001,
1.384433333333334E+009,5.148094892501831E-002,-2.858589403331280E-002,-4.809808731079102E-001,8.595384359359741E-001,5.148094892501831E-002,-2.858589403331280E-002,-4.809808731079102E-001,8.595384359359741E-001,
1.392800000000000E+009,3.134953230619431E-002,-3.109358996152878E-002,-4.586439132690430E-001,8.675011992454529E-001,3.134953230619431E-002,-3.109358996152878E-002,-4.586439132690430E-001,8.675011992454529E-001,
1.401166666666667E+009,1.085273921489716E-002,-2.400620467960835E-002,-4.324647188186646E-001,8.750156760215759E-001,1.085273921489716E-002,-2.400620467960835E-002,-4.324647188186646E-001,8.750156760215759E-001,
1.409533333333334E+009,-2.444829791784287E-003,-6.595360580831766E-003,-4.034631252288818E-001,8.902888298034668E-001,-2.444829791784287E-003,-6.595360580831766E-003,-4.034631252288818E-001,8.902888298034668E-001,
1.417900000000000E+009,-2.675353549420834E-003,1.653059385716915E-002,-3.835616111755371E-001,8.860253095626831E-001,-2.675353549420834E-003,1.653059385716915E-002,-3.835616111755371E-001,8.860253095626831E-001,
1.426266666666667E+009,7.320266682654619E-003,3.356010839343071E-002,-3.482984006404877E-001,9.128658175468445E-001,7.320266682654619E-003,3.356010839343071E-002,-3.482984006404877E-001,9.128658175468445E-001,
1.434633333333334E+009,2.732856571674347E-002,4.245323315262795E-002,-3.386444449424744E-001,9.065430164337158E-001,2.732856571674347E-002,4.245323315262795E-002,-3.386444449424744E-001,9.065430164337158E-001,
1.443000000000000E+009,4.766739904880524E-002,4.042326286435127E-002,-3.154846429824829E-001,9.146777391433716E-001,4.766739904880524E-002,4.042326286435127E-002,-3.154846429824829E-001,9.146777391433716E-001,
1.451366666666667E+009,6.415499001741409E-002,2.559242770075798E-002,-2.896697223186493E-001,9.151949882507324E-001,6.415499001741409E-002,2.559242770075798E-002,-2.896697223186493E-001,9.151949882507324E-001,
1.459733333333334E+009,7.193702459335327E-002,5.859287455677986E-003,-2.651250660419464E-001,9.427505731582642E-001,7.193702459335327E-002,5.859287455677986E-003,-2.651250660419464E-001,9.427505731582642E-001,
