% Version 1.00
%
%freq[Hz],re:Trc1_S11,im:Trc1_S11,re:Trc2_S21,im:Trc2_S21,re:Trc3_S11,im:Trc3_S11,re:Trc4_S21,im:Trc4_S21,
6.900000000000000E+008,-4.567295312881470E-002,3.788512572646141E-002,-5.019749999046326E-001,-8.523243069648743E-001,-4.567295312881470E-002,3.788512572646141E-002,-5.019749999046326E-001,-8.523243069648743E-001,
6.983666666666666E+008,-3.764032199978828E-002,3.825384378433228E-002,-5.277729034423828E-001,-8.419084548950195E-001,-3.764032199978828E-002,3.825384378433228E-002,-5.277729034423828E-001,-8.419084548950195E-001,
7.067333333333334E+008,-3.178627416491509E-002,3.378687053918839E-002,-5.504843592643738E-001,-8.161678910255432E-001,-3.178627416491509E-002,3.378687053918839E-002,-5.504843592643738E-001,-8.161678910255432E-001,
7.151000000000000E+008,-3.144867718219757E-002,2.615152299404144E-002,-5.854817032814026E-001,-8.140449523925781E-001,-3.144867718219757E-002,2.615152299404144E-002,-5.854817032814026E-001,-8.140449523925781E-001,
7.234666666666666E+008,-3.349138796329498E-002,2.099227532744408E-002,-5.991498827934265E-001,-7.985791563987732E-001,-3.349138796329498E-002,2.099227532744408E-002,-5.991498827934265E-001,-7.985791563987732E-001,
7.318333333333334E+008,-4.087492823600769E-002,1.865797676146030E-002,-6.163714528083801E-001,-7.809937000274658E-001,-4.087492823600769E-002,1.865797676146030E-002,-6.163714528083801E-001,-7.809937000274658E-001,
7.402000000000000E+008,-4.707244038581848E-002,2.055285871028900E-002,-6.271827816963196E-001,-7.561162710189819E-001,-4.707244038581848E-002,2.055285871028900E-002,-6.271827816963196E-001,-7.561162710189819E-001,
7.485666666666666E+008,-5.235427618026733E-002,2.740919217467308E-002,-6.569782495498657E-001,-7.428148984909058E-001,-5.235427618026733E-002,2.740919217467308E-002,-6.569782495498657E-001,-7.428148984909058E-001,
7.569333333333334E+008,-5.616188049316406E-002,3.704407438635826E-002,-6.757423281669617E-001,-7.299395203590393E-001,-5.616188049316406E-002,3.704407438635826E-002,-6.757423281669617E-001,-7.299395203590393E-001,
7.653000000000000E+008,-5.065396055579186E-002,4.574229195713997E-002,-6.833177208900452E-001,-7.100572586059570E-001,-5.065396055579186E-002,4.574229195713997E-002,-6.833177208900452E-001,-7.100572586059570E-001,
7.736666666666666E+008,-4.430247843265533E-002,5.222135782241821E-002,-6.961613893508911E-001,-7.066282033920288E-001,-4.430247843265533E-002,5.222135782241821E-002,-6.961613893508911E-001,-7.066282033920288E-001,
7.820333333333334E+008,-3.557188436388969E-002,5.614508315920830E-002,-7.294730544090271E-001,-6.784250736236572E-001,-3.557188436388969E-002,5.614508315920830E-002,-7.294730544090271E-001,-6.784250736236572E-001,
7.904000000000000E+008,-2.556221000850201E-002,5.498507618904114E-002,-7.383823394775391E-001,-6.598386168479919E-001,-2.556221000850201E-002,5.498507618904114E-002,-7.383823394775391E-001,-6.598386168479919E-001,
7.987666666666666E+008,-2.126613073050976E-002,4.967607185244560E-002,-7.437590360641480E-001,-6.437549591064453E-001,-2.126613073050976E-002,4.967607185244560E-002,-7.437590360641480E-001,-6.437549591064453E-001,
8.071333333333334E+008,-1.927837170660496E-002,4.320336133241653E-002,-7.704281210899353E-001,-6.116310954093933E-001,-1.927837170660496E-002,4.320336133241653E-002,-7.704281210899353E-001,-6.116310954093933E-001,
8.155000000000000E+008,-2.232904173433781E-002,3.624756634235382E-002,-7.971338033676148E-001,-6.011354327201843E-001,-2.232904173433781E-002,3.624756634235382E-002,-7.971338033676148E-001,-6.011354327201843E-001,
8.238666666666666E+008,-2.901486493647099E-002,3.425248339772224E-002,-8.032970428466797E-001,-5.777518153190613E-001,-2.901486493647099E-002,3.425248339772224E-002,-8.032970428466797E-001,-5.777518153190613E-001,
8.322333333333334E+008,-3.462136536836624E-002,3.557785600423813E-002,-8.130027055740356E-001,-5.597146749496460E-001,-3.462136536836624E-002,3.557785600423813E-002,-8.130027055740356E-001,-5.597146749496460E-001,
8.406000000000000E+008,-3.935468196868897E-002,3.869338333606720E-002,-8.246880173683167E-001,-5.374495983123779E-001,-3.935468196868897E-002,3.869338333606720E-002,-8.246880173683167E-001,-5.374495983123779E-001,
8.489666666666668E+008,-4.094412550330162E-002,4.967240989208221E-002,-8.369651436805725E-001,-5.078511238098145E-001,-4.094412550330162E-002,4.967240989208221E-002,-8.369651436805725E-001,-5.078511238098145E-001,
8.573333333333334E+008,-3.890056163072586E-002,5.730343237519264E-002,-8.391574621200562E-001,-4.773435890674591E-001,-3.890056163072586E-002,5.730343237519264E-002,-8.391574621200562E-001,-4.773435890674591E-001,
8.657000000000000E+008,-3.365407884120941E-002,6.474535167217255E-002,-8.672532439231873E-001,-4.809836149215698E-001,-3.365407884120941E-002,6.474535167217255E-002,-8.672532439231873E-001,-4.809836149215698E-001,
8.740666666666668E+008,-2.464908920228481E-002,6.965886801481247E-002,-8.729819059371948E-001,-4.565947353839874E-001,-2.464908920228481E-002,6.965886801481247E-002,-8.729819059371948E-001,-4.565947353839874E-001,
8.824333333333334E+008,-1.640997268259525E-002,7.101666182279587E-002,-8.915852904319763E-001,-4.322602748870850E-001,-1.640997268259525E-002,7.101666182279587E-002,-8.915852904319763E-001,-4.322602748870850E-001,
8.908000000000000E+008,-8.355446159839630E-003,6.738997250795364E-002,-9.052327275276184E-001,-4.143754541873932E-001,-8.355446159839630E-003,6.738997250795364E-002,-9.052327275276184E-001,-4.143754541873932E-001,
8.991666666666668E+008,-3.004140686243773E-003,6.148749589920044E-002,-9.053833484649658E-001,-3.872328400611877E-001,-3.004140686243773E-003,6.148749589920044E-002,-9.053833484649658E-001,-3.872328400611877E-001,
9.075333333333334E+008,-2.607647562399507E-003,5.391680449247360E-002,-9.192821383476257E-001,-3.620834052562714E-001,-2.607647562399507E-003,5.391680449247360E-002,-9.192821383476257E-001,-3.620834052562714E-001,
9.159000000000000E+008,-5.484843160957098E-003,4.811365529894829E-002,-9.406831860542297E-001,-3.371183276176453E-001,-5.484843160957098E-003,4.811365529894829E-002,-9.406831860542297E-001,-3.371183276176453E-001,
9.242666666666668E+008,-1.225904934108257E-002,4.822204262018204E-002,-9.317606091499329E-001,-3.151654303073883E-001,-1.225904934108257E-002,4.822204262018204E-002,-9.317606091499329E-001,-3.151654303073883E-001,
9.326333333333334E+008,-1.735284738242626E-002,5.031435564160347E-002,-9.480562806129456E-001,-3.006826639175415E-001,-1.735284738242626E-002,5.031435564160347E-002,-9.480562806129456E-001,-3.006826639175415E-001,
9.410000000000000E+008,-2.151813544332981E-002,5.447949096560478E-002,-9.582713842391968E-001,-2.650163769721985E-001,-2.151813544332981E-002,5.447949096560478E-002,-9.582713842391968E-001,-2.650163769721985E-001,
9.493666666666668E+008,-2.306821569800377E-002,6.355401128530502E-002,-9.628703594207764E-001,-2.346767187118530E-001,-2.306821569800377E-002,6.355401128530502E-002,-9.628703594207764E-001,-2.346767187118530E-001,
9.577333333333334E+008,-1.955281384289265E-002,7.315669208765030E-002,-9.688905477523804E-001,-2.205595225095749E-001,-1.955281384289265E-002,7.315669208765030E-002,-9.688905477523804E-001,-2.205595225095749E-001,
9.661000000000000E+008,-1.083839684724808E-002,7.963337004184723E-002,-9.699766039848328E-001,-1.789078712463379E-001,-1.083839684724808E-002,7.963337004184723E-002,-9.699766039848328E-001,-1.789078712463379E-001,
9.744666666666668E+008,-1.592394692124799E-004,7.982071489095688E-002,-9.675673842430115E-001,-1.686315685510635E-001,-1.592394692124799E-004,7.982071489095688E-002,-9.675673842430115E-001,-1.686315685510635E-001,
9.828333333333334E+008,9.046217426657677E-003,8.072997629642487E-002,-9.835379123687744E-001,-1.488036364316940E-001,9.046217426657677E-003,8.072997629642487E-002,-9.835379123687744E-001,-1.488036364316940E-001,
9.912000000000000E+008,1.958036236464977E-002,7.419609278440476E-002,-9.807669520378113E-001,-1.265880614519119E-001,1.958036236464977E-002,7.419609278440476E-002,-9.807669520378113E-001,-1.265880614519119E-001,
9.995666666666668E+008,2.325617149472237E-002,6.638454645872116E-002,-9.935837388038635E-001,-8.978792279958725E-002,2.325617149472237E-002,6.638454645872116E-002,-9.935837388038635E-001,-8.978792279958725E-002,
1.007933333333333E+009,2.682870812714100E-002,5.676605552434921E-002,-1.006762266159058E+000,-7.190874218940735E-002,2.682870812714100E-002,5.676605552434921E-002,-1.006762266159058E+000,-7.190874218940735E-002,
1.016300000000000E+009,2.057754620909691E-002,5.069973319768906E-002,-9.932106137275696E-001,-4.578874260187149E-002,2.057754620909691E-002,5.069973319768906E-002,-9.932106137275696E-001,-4.578874260187149E-002,
1.024666666666667E+009,1.277648191899061E-002,4.687128961086273E-002,-9.892125725746155E-001,-2.010915987193584E-002,1.277648191899061E-002,4.687128961086273E-002,-9.892125725746155E-001,-2.010915987193584E-002,
1.033033333333333E+009,7.659693714231253E-003,5.153486877679825E-002,-9.959709644317627E-001,6.202604155987501E-003,7.659693714231253E-003,5.153486877679825E-002,-9.959709644317627E-001,6.202604155987501E-003,
1.041400000000000E+009,9.314714698120952E-004,5.647387355566025E-002,-9.960551857948303E-001,2.768654190003872E-002,9.314714698120952E-004,5.647387355566025E-002,-9.960551857948303E-001,2.768654190003872E-002,
1.049766666666667E+009,4.013766534626484E-003,6.588982790708542E-002,-9.814441800117493E-001,6.416071206331253E-002,4.013766534626484E-003,6.588982790708542E-002,-9.814441800117493E-001,6.416071206331253E-002,
1.058133333333333E+009,8.246544748544693E-003,7.484859228134155E-002,-9.831974506378174E-001,8.597292006015778E-002,8.246544748544693E-003,7.484859228134155E-002,-9.831974506378174E-001,8.597292006015778E-002,
1.066500000000000E+009,1.945849880576134E-002,7.876437157392502E-002,-9.977465867996216E-001,1.201943084597588E-001,1.945849880576134E-002,7.876437157392502E-002,-9.977465867996216E-001,1.201943084597588E-001,
1.074866666666667E+009,3.289452195167542E-002,7.721108198165894E-002,-9.915974736213684E-001,1.405612379312515E-001,3.289452195167542E-002,7.721108198165894E-002,-9.915974736213684E-001,1.405612379312515E-001,
1.083233333333334E+009,4.147479683160782E-002,6.885637342929840E-002,-9.749915599822998E-001,1.612337678670883E-001,4.147479683160782E-002,6.885637342929840E-002,-9.749915599822998E-001,1.612337678670883E-001,
1.091600000000000E+009,4.787259176373482E-002,5.805017054080963E-002,-9.574632644653320E-001,1.811437010765076E-001,4.787259176373482E-002,5.805017054080963E-002,-9.574632644653320E-001,1.811437010765076E-001,
1.099966666666667E+009,4.685195535421372E-002,4.447299242019653E-002,-9.526090025901794E-001,2.194293737411499E-001,4.685195535421372E-002,4.447299242019653E-002,-9.526090025901794E-001,2.194293737411499E-001,
1.108333333333334E+009,3.861988335847855E-002,3.654544800519943E-002,-9.525923132896423E-001,2.277238965034485E-001,3.861988335847855E-002,3.654544800519943E-002,-9.525923132896423E-001,2.277238965034485E-001,
1.116700000000000E+009,2.804687991738319E-002,3.344433009624481E-002,-9.451687335968018E-001,2.613716125488281E-001,2.804687991738319E-002,3.344433009624481E-002,-9.451687335968018E-001,2.613716125488281E-001,
1.125066666666667E+009,1.693221554160118E-002,3.826993331313133E-002,-9.461285471916199E-001,2.776774764060974E-001,1.693221554160118E-002,3.826993331313133E-002,-9.461285471916199E-001,2.776774764060974E-001,
1.133433333333334E+009,9.177766740322113E-003,4.827701300382614E-002,-9.434353113174439E-001,3.226407766342163E-001,9.177766740322113E-003,4.827701300382614E-002,-9.434353113174439E-001,3.226407766342163E-001,
1.141800000000000E+009,8.010499179363251E-003,6.185353174805641E-002,-9.204348325729370E-001,3.374032080173492E-001,8.010499179363251E-003,6.185353174805641E-002,-9.204348325729370E-001,3.374032080173492E-001,
1.150166666666667E+009,1.707580313086510E-002,7.610845565795898E-002,-9.114283323287964E-001,3.380518555641174E-001,1.707580313086510E-002,7.610845565795898E-002,-9.114283323287964E-001,3.380518555641174E-001,
1.158533333333334E+009,3.303985297679901E-002,8.297856897115707E-002,-9.037485718727112E-001,3.780380189418793E-001,3.303985297679901E-002,8.297856897115707E-002,-9.037485718727112E-001,3.780380189418793E-001,
1.166900000000000E+009,5.216516926884651E-002,8.261890709400177E-002,-8.872612118721008E-001,3.985835313796997E-001,5.216516926884651E-002,8.261890709400177E-002,-8.872612118721008E-001,3.985835313796997E-001,
1.175266666666667E+009,6.791242212057114E-002,7.148886471986771E-002,-8.815778493881226E-001,4.278933107852936E-001,6.791242212057114E-002,7.148886471986771E-002,-8.815778493881226E-001,4.278933107852936E-001,
1.183633333333334E+009,7.959619909524918E-002,5.643076449632645E-002,-8.796015381813049E-001,4.393987655639648E-001,7.959619909524918E-002,5.643076449632645E-002,-8.796015381813049E-001,4.393987655639648E-001,
1.192000000000000E+009,7.940088212490082E-002,3.741298243403435E-002,-8.673833608627319E-001,4.623771011829376E-001,7.940088212490082E-002,3.741298243403435E-002,-8.673833608627319E-001,4.623771011829376E-001,
1.200366666666667E+009,6.970516592264175E-002,2.087749727070332E-002,-8.545391559600830E-001,4.838969707489014E-001,6.970516592264175E-002,2.087749727070332E-002,-8.545391559600830E-001,4.838969707489014E-001,
1.208733333333334E+009,5.468779802322388E-002,1.217951718717814E-002,-8.473802208900452E-001,5.256070494651794E-001,5.468779802322388E-002,1.217951718717814E-002,-8.473802208900452E-001,5.256070494651794E-001,
1.217100000000000E+009,3.881325945258141E-002,1.374615821987391E-002,-8.440414667129517E-001,5.358508825302124E-001,3.881325945258141E-002,1.374615821987391E-002,-8.440414667129517E-001,5.358508825302124E-001,
1.225466666666667E+009,2.655678056180477E-002,2.489451505243778E-002,-8.109678030014038E-001,5.602174997329712E-001,2.655678056180477E-002,2.489451505243778E-002,-8.109678030014038E-001,5.602174997329712E-001,
1.233833333333334E+009,2.235397882759571E-002,4.169749468564987E-002,-8.059692978858948E-001,5.717547535896301E-001,2.235397882759571E-002,4.169749468564987E-002,-8.059692978858948E-001,5.717547535896301E-001,
1.242200000000000E+009,3.080399893224239E-002,5.614743754267693E-002,-7.802789807319641E-001,6.054239869117737E-001,3.080399893224239E-002,5.614743754267693E-002,-7.802789807319641E-001,6.054239869117737E-001,
1.250566666666667E+009,4.401449859142304E-002,6.618756800889969E-002,-7.582648992538452E-001,6.107457876205444E-001,4.401449859142304E-002,6.618756800889969E-002,-7.582648992538452E-001,6.107457876205444E-001,
1.258933333333334E+009,6.437555700540543E-002,6.607808172702789E-002,-7.528938055038452E-001,6.325499415397644E-001,6.437555700540543E-002,6.607808172702789E-002,-7.528938055038452E-001,6.325499415397644E-001,
1.267300000000000E+009,8.358666300773621E-002,5.511226132512093E-002,-7.338962554931641E-001,6.470016837120056E-001,8.358666300773621E-002,5.511226132512093E-002,-7.338962554931641E-001,6.470016837120056E-001,
1.275666666666667E+009,9.232223033905029E-002,3.688517957925797E-002,-7.211775779724121E-001,6.546643972396851E-001,9.232223033905029E-002,3.688517957925797E-002,-7.211775779724121E-001,6.546643972396851E-001,
1.284033333333334E+009,9.421145915985107E-002,1.559673901647329E-002,-7.049269676208496E-001,6.972534656524658E-001,9.421145915985107E-002,1.559673901647329E-002,-7.049269676208496E-001,6.972534656524658E-001,
1.292400000000000E+009,8.365406841039658E-002,-3.057202557101846E-003,-6.930284500122070E-001,7.007310390472412E-001,8.365406841039658E-002,-3.057202557101846E-003,-6.930284500122070E-001,7.007310390472412E-001,
1.300766666666667E+009,6.414769589900971E-002,-1.143256947398186E-002,-6.706136465072632E-001,7.244209051132202E-001,6.414769589900971E-002,-1.143256947398186E-002,-6.706136465072632E-001,7.244209051132202E-001,
1.309133333333334E+009,4.399865120649338E-002,-9.795420803129673E-003,-6.460791230201721E-001,7.387161254882813E-001,4.399865120649338E-002,-9.795420803129673E-003,-6.460791230201721E-001,7.387161254882813E-001,
1.317500000000000E+009,2.979179099202156E-002,2.394618233665824E-003,-6.331845521926880E-001,7.697658538818359E-001,2.979179099202156E-002,2.394618233665824E-003,-6.331845521926880E-001,7.697658538818359E-001,
1.325866666666667E+009,2.554244361817837E-002,1.952894963324070E-002,-6.130773425102234E-001,7.841478586196899E-001,2.554244361817837E-002,1.952894963324070E-002,-6.130773425102234E-001,7.841478586196899E-001,
1.334233333333334E+009,3.407371789216995E-002,3.731818497180939E-002,-5.947933197021484E-001,7.902530431747437E-001,3.407371789216995E-002,3.731818497180939E-002,-5.947933197021484E-001,7.902530431747437E-001,
1.342600000000000E+009,4.982085525989533E-002,4.614597558975220E-002,-5.769535303115845E-001,8.071131110191345E-001,4.982085525989533E-002,4.614597558975220E-002,-5.769535303115845E-001,8.071131110191345E-001,
1.350966666666667E+009,6.998705863952637E-002,4.317568242549896E-002,-5.510078668594360E-001,8.194333910942078E-001,6.998705863952637E-002,4.317568242549896E-002,-5.510078668594360E-001,8.194333910942078E-001,
1.359333333333334E+009,8.474785089492798E-002,2.949431352317333E-002,-5.378338098526001E-001,8.188987970352173E-001,8.474785089492798E-002,2.949431352317333E-002,-5.378338098526001E-001,8.188987970352173E-001,
1.367700000000000E+009,9.031393378973007E-002,9.546542540192604E-003,-5.039690732955933E-001,8.375320434570313E-001,9.031393378973007E-002,9.546542540192604E-003,-5.039690732955933E-001,8.375320434570313E-001,
1.376066666666667E+009,8.627583831548691E-002,-1.262677554041147E-002,-4.889052212238312E-001,8.470148444175720E-001,8.627583831548691E-002,-1.262677554041147E-002,-4.889052212238312E-001,8.470148444175720E-001,
1.384433333333334E+009,6.893467158079147E-002,-2.798501588404179E-002,-4.735511243343353E-001,8.777072429656982E-001,6.893467158079147E-002,-2.798501588404179E-002,-4.735511243343353E-001,8.777072429656982E-001,
1.392800000000000E+009,4.822893813252449E-002,-3.029785864055157E-002,-4.525637626647949E-001,8.857756853103638E-001,4.822893813252449E-002,-3.029785864055157E-002,-4.525637626647949E-001,8.857756853103638E-001,
1.401166666666667E+009,2.780421450734139E-002,-2.286140620708466E-002,-4.257497489452362E-001,8.928127884864807E-001,2.780421450734139E-002,-2.286140620708466E-002,-4.257497489452362E-001,8.928127884864807E-001,
1.409533333333334E+009,1.474568992853165E-002,-5.361930932849646E-003,-3.963168859481812E-001,9.074860811233521E-001,1.474568992853165E-002,-5.361930932849646E-003,-3.963168859481812E-001,9.074860811233521E-001,
1.417900000000000E+009,1.589296758174896E-002,1.791923865675926E-002,-3.765225410461426E-001,9.033163785934448E-001,1.589296758174896E-002,1.791923865675926E-002,-3.765225410461426E-001,9.033163785934448E-001,
1.426266666666667E+009,2.696532197296619E-002,3.483542799949646E-002,-3.397511541843414E-001,9.300921559333801E-001,2.696532197296619E-002,3.483542799949646E-002,-3.397511541843414E-001,9.300921559333801E-001,
1.434633333333334E+009,4.770608246326447E-002,4.302573949098587E-002,-3.299425244331360E-001,9.237846136093140E-001,4.770608246326447E-002,4.302573949098587E-002,-3.299425244331360E-001,9.237846136093140E-001,
1.443000000000000E+009,6.831032037734985E-002,4.017109423875809E-002,-3.054710030555725E-001,9.318779706954956E-001,6.831032037734985E-002,4.017109423875809E-002,-3.054710030555725E-001,9.318779706954956E-001,
1.451366666666667E+009,8.424482494592667E-002,2.451163716614246E-002,-2.797238826751709E-001,9.318971633911133E-001,8.424482494592667E-002,2.451163716614246E-002,-2.797238826751709E-001,9.318971633911133E-001,
1.459733333333334E+009,9.056528657674789E-002,4.219111055135727E-003,-2.537836730480194E-001,9.587195515632629E-001,9.056528657674789E-002,4.219111055135727E-003,-2.537836730480194E-001,9.587195515632629E-001,
