% Version 1.00
%
%freq[Hz],re:Trc1_S11,im:Trc1_S11,re:Trc2_S21,im:Trc2_S21,re:Trc3_S11,im:Trc3_S11,re:Trc4_S21,im:Trc4_S21,
6.900000000000000E+008,-5.511599779129028E-002,7.308360189199448E-002,-4.529244601726532E-001,-8.580824136734009E-001,-5.511599779129028E-002,7.308360189199448E-002,-4.529244601726532E-001,-8.580824136734009E-001,
6.983666666666666E+008,-4.543455690145493E-002,7.409977167844772E-002,-4.804936349391937E-001,-8.492897152900696E-001,-4.543455690145493E-002,7.409977167844772E-002,-4.804936349391937E-001,-8.492897152900696E-001,
7.067333333333334E+008,-3.808933496475220E-002,7.019197195768356E-002,-5.037064552307129E-001,-8.257571458816528E-001,-3.808933496475220E-002,7.019197195768356E-002,-5.037064552307129E-001,-8.257571458816528E-001,
7.151000000000000E+008,-3.503217548131943E-002,6.266291439533234E-002,-5.392369627952576E-001,-8.248116374015808E-001,-3.503217548131943E-002,6.266291439533234E-002,-5.392369627952576E-001,-8.248116374015808E-001,
7.234666666666666E+008,-3.513057529926300E-002,5.761753022670746E-002,-5.546262860298157E-001,-8.095521330833435E-001,-3.513057529926300E-002,5.761753022670746E-002,-5.546262860298157E-001,-8.095521330833435E-001,
7.318333333333334E+008,-4.051654040813446E-002,5.444096028804779E-002,-5.733734369277954E-001,-7.934498786926270E-001,-4.051654040813446E-002,5.444096028804779E-002,-5.733734369277954E-001,-7.934498786926270E-001,
7.402000000000000E+008,-4.479376599192619E-002,5.524151772260666E-002,-5.859400629997253E-001,-7.681738734245300E-001,-4.479376599192619E-002,5.524151772260666E-002,-5.859400629997253E-001,-7.681738734245300E-001,
7.485666666666666E+008,-4.891536384820938E-002,6.106230989098549E-002,-6.165575981140137E-001,-7.558619379997253E-001,-4.891536384820938E-002,6.106230989098549E-002,-6.165575981140137E-001,-7.558619379997253E-001,
7.569333333333334E+008,-5.196787789463997E-002,6.966958194971085E-002,-6.367323994636536E-001,-7.437428832054138E-001,-5.196787789463997E-002,6.966958194971085E-002,-6.367323994636536E-001,-7.437428832054138E-001,
7.653000000000000E+008,-4.597133398056030E-002,7.724577188491821E-002,-6.446009874343872E-001,-7.253139019012451E-001,-4.597133398056030E-002,7.724577188491821E-002,-6.446009874343872E-001,-7.253139019012451E-001,
7.736666666666666E+008,-3.924591094255447E-002,8.322350680828095E-002,-6.569617390632629E-001,-7.197118401527405E-001,-3.924591094255447E-002,8.322350680828095E-002,-6.569617390632629E-001,-7.197118401527405E-001,
7.820333333333334E+008,-2.987086586654186E-002,8.679777383804321E-002,-6.914536356925964E-001,-6.937751770019531E-001,-2.987086586654186E-002,8.679777383804321E-002,-6.914536356925964E-001,-6.937751770019531E-001,
7.904000000000000E+008,-1.895012333989143E-002,8.538971841335297E-002,-7.016567587852478E-001,-6.765094995498657E-001,-1.895012333989143E-002,8.538971841335297E-002,-7.016567587852478E-001,-6.765094995498657E-001,
7.987666666666666E+008,-1.306076440960169E-002,7.984513044357300E-002,-7.070595026016235E-001,-6.611113548278809E-001,-1.306076440960169E-002,7.984513044357300E-002,-7.070595026016235E-001,-6.611113548278809E-001,
8.071333333333334E+008,-9.819849394261837E-003,7.367860525846481E-002,-7.355967760086060E-001,-6.304743289947510E-001,-9.819849394261837E-003,7.367860525846481E-002,-7.355967760086060E-001,-6.304743289947510E-001,
8.155000000000000E+008,-1.111304294317961E-002,6.547949463129044E-002,-7.629217505455017E-001,-6.205989718437195E-001,-1.111304294317961E-002,6.547949463129044E-002,-7.629217505455017E-001,-6.205989718437195E-001,
8.238666666666666E+008,-1.634879037737846E-002,6.266051530838013E-002,-7.704793214797974E-001,-5.968403816223145E-001,-1.634879037737846E-002,6.266051530838013E-002,-7.704793214797974E-001,-5.968403816223145E-001,
8.322333333333334E+008,-2.062641084194183E-002,6.281165033578873E-002,-7.826795578002930E-001,-5.790771842002869E-001,-2.062641084194183E-002,6.281165033578873E-002,-7.826795578002930E-001,-5.790771842002869E-001,
8.406000000000000E+008,-2.458618953824043E-002,6.480872631072998E-002,-7.943845987319946E-001,-5.574464797973633E-001,-2.458618953824043E-002,6.480872631072998E-002,-7.943845987319946E-001,-5.574464797973633E-001,
8.489666666666668E+008,-2.534724399447441E-002,7.447345554828644E-002,-8.075718283653259E-001,-5.277801156044006E-001,-2.534724399447441E-002,7.447345554828644E-002,-8.075718283653259E-001,-5.277801156044006E-001,
8.573333333333334E+008,-2.302268333733082E-002,8.104924857616425E-002,-8.109777569770813E-001,-4.974654614925385E-001,-2.302268333733082E-002,8.104924857616425E-002,-8.109777569770813E-001,-4.974654614925385E-001,
8.657000000000000E+008,-1.806457154452801E-002,8.737308531999588E-002,-8.378646373748779E-001,-5.016177892684937E-001,-1.806457154452801E-002,8.737308531999588E-002,-8.378646373748779E-001,-5.016177892684937E-001,
8.740666666666668E+008,-8.820272982120514E-003,9.152074158191681E-002,-8.437911868095398E-001,-4.775883257389069E-001,-8.820272982120514E-003,9.152074158191681E-002,-8.437911868095398E-001,-4.775883257389069E-001,
8.824333333333334E+008,-2.110162167809904E-004,9.256324172019959E-002,-8.634691834449768E-001,-4.536644220352173E-001,-2.110162167809904E-004,9.256324172019959E-002,-8.634691834449768E-001,-4.536644220352173E-001,
8.908000000000000E+008,8.583088405430317E-003,8.862005174160004E-002,-8.781381249427795E-001,-4.366271793842316E-001,8.583088405430317E-003,8.862005174160004E-002,-8.781381249427795E-001,-4.366271793842316E-001,
8.991666666666668E+008,1.480315253138542E-002,8.172389864921570E-002,-8.791171312332153E-001,-4.102643728256226E-001,1.480315253138542E-002,8.172389864921570E-002,-8.791171312332153E-001,-4.102643728256226E-001,
9.075333333333334E+008,1.676731929183006E-002,7.321290671825409E-002,-8.937412500381470E-001,-3.854907155036926E-001,1.676731929183006E-002,7.321290671825409E-002,-8.937412500381470E-001,-3.854907155036926E-001,
9.159000000000000E+008,1.474083587527275E-002,6.663461029529572E-002,-9.160036444664002E-001,-3.610343337059021E-001,1.474083587527275E-002,6.663461029529572E-002,-9.160036444664002E-001,-3.610343337059021E-001,
9.242666666666668E+008,8.968145586550236E-003,6.547340005636215E-002,-9.090961217880249E-001,-3.384363949298859E-001,8.968145586550236E-003,6.547340005636215E-002,-9.090961217880249E-001,-3.384363949298859E-001,
9.326333333333334E+008,4.566743504256010E-003,6.637744605541229E-002,-9.261797070503235E-001,-3.245367705821991E-001,4.566743504256010E-003,6.637744605541229E-002,-9.261797070503235E-001,-3.245367705821991E-001,
9.410000000000000E+008,6.291749305091798E-004,6.893351674079895E-002,-9.370961189270020E-001,-2.882744371891022E-001,6.291749305091798E-004,6.893351674079895E-002,-9.370961189270020E-001,-2.882744371891022E-001,
9.493666666666668E+008,-1.021254109218717E-003,7.671394944190979E-002,-9.430677294731140E-001,-2.573034763336182E-001,-1.021254109218717E-003,7.671394944190979E-002,-9.430677294731140E-001,-2.573034763336182E-001,
9.577333333333334E+008,2.453473396599293E-003,8.558484166860580E-002,-9.492170810699463E-001,-2.445888668298721E-001,2.453473396599293E-003,8.558484166860580E-002,-9.492170810699463E-001,-2.445888668298721E-001,
9.661000000000000E+008,1.055412366986275E-002,9.149371832609177E-002,-9.505845904350281E-001,-2.019737362861633E-001,1.055412366986275E-002,9.149371832609177E-002,-9.505845904350281E-001,-2.019737362861633E-001,
9.744666666666668E+008,2.037156559526920E-002,9.097064286470413E-002,-9.483881592750549E-001,-1.917692422866821E-001,2.037156559526920E-002,9.097064286470413E-002,-9.483881592750549E-001,-1.917692422866821E-001,
9.828333333333334E+008,2.980709820985794E-002,9.172621369361877E-002,-9.650361537933350E-001,-1.735394597053528E-001,2.980709820985794E-002,9.172621369361877E-002,-9.650361537933350E-001,-1.735394597053528E-001,
9.912000000000000E+008,4.052834957838059E-002,8.479504287242889E-002,-9.635143876075745E-001,-1.510638743638992E-001,4.052834957838059E-002,8.479504287242889E-002,-9.635143876075745E-001,-1.510638743638992E-001,
9.995666666666668E+008,4.496039450168610E-002,7.639241218566895E-002,-9.759877920150757E-001,-1.148760318756104E-001,4.496039450168610E-002,7.639241218566895E-002,-9.759877920150757E-001,-1.148760318756104E-001,
1.007933333333333E+009,4.932864010334015E-002,6.575769931077957E-002,-9.916377663612366E-001,-9.881453216075897E-002,4.932864010334015E-002,6.575769931077957E-002,-9.916377663612366E-001,-9.881453216075897E-002,
1.016300000000000E+009,4.374181479215622E-002,5.828728154301643E-002,-9.796369075775147E-001,-7.138878852128983E-002,4.374181479215622E-002,5.828728154301643E-002,-9.796369075775147E-001,-7.138878852128983E-002,
1.024666666666667E+009,3.648997843265533E-002,5.344484001398087E-002,-9.754359722137451E-001,-4.528756812214851E-002,3.648997843265533E-002,5.344484001398087E-002,-9.754359722137451E-001,-4.528756812214851E-002,
1.033033333333333E+009,3.154845535755158E-002,5.676886439323425E-002,-9.836865663528442E-001,-1.892437599599361E-002,3.154845535755158E-002,5.676886439323425E-002,-9.836865663528442E-001,-1.892437599599361E-002,
1.041400000000000E+009,2.436229400336742E-002,6.067255884408951E-002,-9.850224256515503E-001,3.497522091493011E-003,2.436229400336742E-002,6.067255884408951E-002,-9.850224256515503E-001,3.497522091493011E-003,
1.049766666666667E+009,2.675068937242031E-002,6.896971166133881E-002,-9.715309739112854E-001,3.980127349495888E-002,2.675068937242031E-002,6.896971166133881E-002,-9.715309739112854E-001,3.980127349495888E-002,
1.058133333333333E+009,3.053544461727142E-002,7.741182297468185E-002,-9.724953770637512E-001,6.168835610151291E-002,3.053544461727142E-002,7.741182297468185E-002,-9.724953770637512E-001,6.168835610151291E-002,
1.066500000000000E+009,4.113982990384102E-002,8.130767941474915E-002,-9.882615804672241E-001,9.556088596582413E-002,4.113982990384102E-002,8.130767941474915E-002,-9.882615804672241E-001,9.556088596582413E-002,
1.074866666666667E+009,5.407437682151794E-002,7.947354763746262E-002,-9.820288419723511E-001,1.154118627309799E-001,5.407437682151794E-002,7.947354763746262E-002,-9.820288419723511E-001,1.154118627309799E-001,
1.083233333333334E+009,6.279596686363220E-002,7.102210819721222E-002,-9.659565091133118E-001,1.369629800319672E-001,6.279596686363220E-002,7.102210819721222E-002,-9.659565091133118E-001,1.369629800319672E-001,
1.091600000000000E+009,6.953836977481842E-002,5.969608575105667E-002,-9.488235116004944E-001,1.567945480346680E-001,6.953836977481842E-002,5.969608575105667E-002,-9.488235116004944E-001,1.567945480346680E-001,
1.099966666666667E+009,6.907035410404205E-002,4.560554400086403E-002,-9.452849030494690E-001,1.953214854001999E-001,6.907035410404205E-002,4.560554400086403E-002,-9.452849030494690E-001,1.953214854001999E-001,
1.108333333333334E+009,6.153661012649536E-002,3.657331317663193E-002,-9.459130167961121E-001,2.038781344890595E-001,6.153661012649536E-002,3.657331317663193E-002,-9.459130167961121E-001,2.038781344890595E-001,
1.116700000000000E+009,5.145046487450600E-002,3.197323158383369E-002,-9.399970769882202E-001,2.374441474676132E-001,5.145046487450600E-002,3.197323158383369E-002,-9.399970769882202E-001,2.374441474676132E-001,
1.125066666666667E+009,4.032070562243462E-002,3.501504287123680E-002,-9.411566257476807E-001,2.547748088836670E-001,4.032070562243462E-002,3.501504287123680E-002,-9.411566257476807E-001,2.547748088836670E-001,
1.133433333333334E+009,3.195948898792267E-002,4.368358477950096E-002,-9.395855069160461E-001,2.998215854167938E-001,3.195948898792267E-002,4.368358477950096E-002,-9.395855069160461E-001,2.998215854167938E-001,
1.141800000000000E+009,2.987120673060417E-002,5.607227236032486E-002,-9.166216254234314E-001,3.139883875846863E-001,2.987120673060417E-002,5.607227236032486E-002,-9.166216254234314E-001,3.139883875846863E-001,
1.150166666666667E+009,3.767001256346703E-002,6.988504528999329E-002,-9.072490930557251E-001,3.162341415882111E-001,3.767001256346703E-002,6.988504528999329E-002,-9.072490930557251E-001,3.162341415882111E-001,
1.158533333333334E+009,5.268071219325066E-002,7.659285515546799E-002,-9.006423354148865E-001,3.559439778327942E-001,5.268071219325066E-002,7.659285515546799E-002,-9.006423354148865E-001,3.559439778327942E-001,
1.166900000000000E+009,7.082988321781158E-002,7.630215585231781E-002,-8.840433955192566E-001,3.775615692138672E-001,7.082988321781158E-002,7.630215585231781E-002,-8.840433955192566E-001,3.775615692138672E-001,
1.175266666666667E+009,8.587536215782166E-002,6.575398147106171E-002,-8.788256049156189E-001,4.055243134498596E-001,8.587536215782166E-002,6.575398147106171E-002,-8.788256049156189E-001,4.055243134498596E-001,
1.183633333333334E+009,9.769615530967712E-002,5.063311383128166E-002,-8.767540454864502E-001,4.192754626274109E-001,9.769615530967712E-002,5.063311383128166E-002,-8.767540454864502E-001,4.192754626274109E-001,
1.192000000000000E+009,9.782461076974869E-002,3.171249851584435E-002,-8.659590482711792E-001,4.407024979591370E-001,9.782461076974869E-002,3.171249851584435E-002,-8.659590482711792E-001,4.407024979591370E-001,
1.200366666666667E+009,8.868215233087540E-002,1.473407074809074E-002,-8.538076877593994E-001,4.627411067485809E-001,8.868215233087540E-002,1.473407074809074E-002,-8.538076877593994E-001,4.627411067485809E-001,
1.208733333333334E+009,7.391726970672607E-002,4.764684941619635E-003,-8.475018739700317E-001,5.046303868293762E-001,7.391726970672607E-002,4.764684941619635E-003,-8.475018739700317E-001,5.046303868293762E-001,
1.217100000000000E+009,5.787632986903191E-002,4.863222595304251E-003,-8.438540697097778E-001,5.161805748939514E-001,5.787632986903191E-002,4.863222595304251E-003,-8.438540697097778E-001,5.161805748939514E-001,
1.225466666666667E+009,4.560495167970657E-002,1.478168368339539E-002,-8.122267723083496E-001,5.404475331306458E-001,4.560495167970657E-002,1.478168368339539E-002,-8.122267723083496E-001,5.404475331306458E-001,
1.233833333333334E+009,4.052411392331123E-002,3.070335648953915E-002,-8.074416518211365E-001,5.527729988098145E-001,4.052411392331123E-002,3.070335648953915E-002,-8.074416518211365E-001,5.527729988098145E-001,
1.242200000000000E+009,4.800613224506378E-002,4.468630254268646E-002,-7.809655070304871E-001,5.867332816123962E-001,4.800613224506378E-002,4.468630254268646E-002,-7.809655070304871E-001,5.867332816123962E-001,
1.250566666666667E+009,6.010023131966591E-002,5.446437001228333E-002,-7.608398199081421E-001,5.929472446441650E-001,6.010023131966591E-002,5.446437001228333E-002,-7.608398199081421E-001,5.929472446441650E-001,
1.258933333333334E+009,7.970833778381348E-002,5.480045825242996E-002,-7.556305527687073E-001,6.145161986351013E-001,7.970833778381348E-002,5.480045825242996E-002,-7.556305527687073E-001,6.145161986351013E-001,
1.267300000000000E+009,9.843095391988754E-002,4.412930086255074E-002,-7.356449365615845E-001,6.286495923995972E-001,9.843095391988754E-002,4.412930086255074E-002,-7.356449365615845E-001,6.286495923995972E-001,
1.275666666666667E+009,1.070236638188362E-001,2.645008265972138E-002,-7.244743108749390E-001,6.364961266517639E-001,1.070236638188362E-001,2.645008265972138E-002,-7.244743108749390E-001,6.364961266517639E-001,
1.284033333333334E+009,1.087975129485130E-001,4.979678895324469E-003,-7.075223326683044E-001,6.790400147438049E-001,1.087975129485130E-001,4.979678895324469E-003,-7.075223326683044E-001,6.790400147438049E-001,
1.292400000000000E+009,9.852866828441620E-002,-1.419055461883545E-002,-6.969214081764221E-001,6.829095482826233E-001,9.852866828441620E-002,-1.419055461883545E-002,-6.969214081764221E-001,6.829095482826233E-001,
1.300766666666667E+009,7.898636907339096E-002,-2.344041690230370E-002,-6.744986772537231E-001,7.074935436248779E-001,7.898636907339096E-002,-2.344041690230370E-002,-6.744986772537231E-001,7.074935436248779E-001,
1.309133333333334E+009,5.828963592648506E-002,-2.298502810299397E-002,-6.495591998100281E-001,7.219185233116150E-001,5.828963592648506E-002,-2.298502810299397E-002,-6.495591998100281E-001,7.219185233116150E-001,
1.317500000000000E+009,4.347003623843193E-002,-1.174130570143461E-002,-6.376978158950806E-001,7.536607384681702E-001,4.347003623843193E-002,-1.174130570143461E-002,-6.376978158950806E-001,7.536607384681702E-001,
1.325866666666667E+009,3.840661048889160E-002,4.804699216037989E-003,-6.187323331832886E-001,7.689211964607239E-001,3.840661048889160E-002,4.804699216037989E-003,-6.187323331832886E-001,7.689211964607239E-001,
1.334233333333334E+009,4.582841321825981E-002,2.198889106512070E-002,-5.996511578559876E-001,7.755534052848816E-001,4.582841321825981E-002,2.198889106512070E-002,-5.996511578559876E-001,7.755534052848816E-001,
1.342600000000000E+009,6.080747395753861E-002,3.116353973746300E-002,-5.817255973815918E-001,7.915940880775452E-001,6.080747395753861E-002,3.116353973746300E-002,-5.817255973815918E-001,7.915940880775452E-001,
1.350966666666667E+009,8.009719103574753E-002,2.865003421902657E-002,-5.567076802253723E-001,8.047940731048584E-001,8.009719103574753E-002,2.865003421902657E-002,-5.567076802253723E-001,8.047940731048584E-001,
1.359333333333334E+009,9.440156072378159E-002,1.568354666233063E-002,-5.425345897674561E-001,8.048591017723084E-001,9.440156072378159E-002,1.568354666233063E-002,-5.425345897674561E-001,8.048591017723084E-001,
1.367700000000000E+009,9.994720667600632E-002,-3.684046911075711E-003,-5.091253519058228E-001,8.240209817886353E-001,9.994720667600632E-002,-3.684046911075711E-003,-5.091253519058228E-001,8.240209817886353E-001,
1.376066666666667E+009,9.596008807420731E-002,-2.574927546083927E-002,-4.939097464084625E-001,8.330016732215881E-001,9.596008807420731E-002,-2.574927546083927E-002,-4.939097464084625E-001,8.330016732215881E-001,
1.384433333333334E+009,7.884355634450913E-002,-4.108990728855133E-002,-4.798648655414581E-001,8.647735118865967E-001,7.884355634450913E-002,-4.108990728855133E-002,-4.798648655414581E-001,8.647735118865967E-001,
1.392800000000000E+009,5.809818208217621E-002,-4.375310242176056E-002,-4.589386582374573E-001,8.728622794151306E-001,5.809818208217621E-002,-4.375310242176056E-002,-4.589386582374573E-001,8.728622794151306E-001,
1.401166666666667E+009,3.739080578088760E-002,-3.718248382210732E-002,-4.317646026611328E-001,8.811540603637695E-001,3.739080578088760E-002,-3.718248382210732E-002,-4.317646026611328E-001,8.811540603637695E-001,
1.409533333333334E+009,2.326610870659351E-002,-2.018863148987293E-002,-4.024121165275574E-001,8.961967229843140E-001,2.326610870659351E-002,-2.018863148987293E-002,-4.024121165275574E-001,8.961967229843140E-001,
1.417900000000000E+009,2.376968972384930E-002,2.448753686621785E-003,-3.827432096004486E-001,8.936260342597961E-001,2.376968972384930E-002,2.448753686621785E-003,-3.827432096004486E-001,8.936260342597961E-001,
1.426266666666667E+009,3.390050306916237E-002,1.909565553069115E-002,-3.461171388626099E-001,9.188334941864014E-001,3.390050306916237E-002,1.909565553069115E-002,-3.461171388626099E-001,9.188334941864014E-001,
1.434633333333334E+009,5.383257567882538E-002,2.738600969314575E-002,-3.358067572116852E-001,9.133576154708862E-001,5.383257567882538E-002,2.738600969314575E-002,-3.358067572116852E-001,9.133576154708862E-001,
1.443000000000000E+009,7.390563189983368E-002,2.507086656987667E-002,-3.112359642982483E-001,9.214893579483032E-001,7.390563189983368E-002,2.507086656987667E-002,-3.112359642982483E-001,9.214893579483032E-001,
1.451366666666667E+009,8.959346264600754E-002,9.799754247069359E-003,-2.856725156307221E-001,9.228627681732178E-001,8.959346264600754E-002,9.799754247069359E-003,-2.856725156307221E-001,9.228627681732178E-001,
1.459733333333334E+009,9.573978185653687E-002,-9.908085688948631E-003,-2.591137588024139E-001,9.490248560905457E-001,9.573978185653687E-002,-9.908085688948631E-003,-2.591137588024139E-001,9.490248560905457E-001,
