% Version 1.00
%
%freq[Hz],re:Trc1_S11,im:Trc1_S11,re:Trc2_S21,im:Trc2_S21,re:Trc3_S11,im:Trc3_S11,re:Trc4_S21,im:Trc4_S21,
6.900000000000000E+008,-4.840327426791191E-002,4.055346548557282E-002,-5.074426531791687E-001,-8.495229482650757E-001,-4.840327426791191E-002,4.055346548557282E-002,-5.074426531791687E-001,-8.495229482650757E-001,
6.983666666666666E+008,-4.042376950383186E-002,4.087906703352928E-002,-5.324401855468750E-001,-8.387363553047180E-001,-4.042376950383186E-002,4.087906703352928E-002,-5.324401855468750E-001,-8.387363553047180E-001,
7.067333333333334E+008,-3.454003110527992E-002,3.638422489166260E-002,-5.553744435310364E-001,-8.132404685020447E-001,-3.454003110527992E-002,3.638422489166260E-002,-5.553744435310364E-001,-8.132404685020447E-001,
7.151000000000000E+008,-3.432181850075722E-002,2.878926135599613E-002,-5.908655524253845E-001,-8.109279870986939E-001,-3.432181850075722E-002,2.878926135599613E-002,-5.908655524253845E-001,-8.109279870986939E-001,
7.234666666666666E+008,-3.641265630722046E-002,2.365555986762047E-002,-6.037739515304565E-001,-7.947558760643005E-001,-3.641265630722046E-002,2.365555986762047E-002,-6.037739515304565E-001,-7.947558760643005E-001,
7.318333333333334E+008,-4.391082003712654E-002,2.146555669605732E-002,-6.209185123443604E-001,-7.784607410430908E-001,-4.391082003712654E-002,2.146555669605732E-002,-6.209185123443604E-001,-7.784607410430908E-001,
7.402000000000000E+008,-5.016074702143669E-002,2.349580824375153E-002,-6.317096948623657E-001,-7.527505159378052E-001,-5.016074702143669E-002,2.349580824375153E-002,-6.317096948623657E-001,-7.527505159378052E-001,
7.485666666666666E+008,-5.529755353927612E-002,3.063436783850193E-002,-6.616916656494141E-001,-7.390604615211487E-001,-5.529755353927612E-002,3.063436783850193E-002,-6.616916656494141E-001,-7.390604615211487E-001,
7.569333333333334E+008,-5.897227302193642E-002,4.042920097708702E-002,-6.804232001304627E-001,-7.259164452552795E-001,-5.897227302193642E-002,4.042920097708702E-002,-6.804232001304627E-001,-7.259164452552795E-001,
7.653000000000000E+008,-5.326468870043755E-002,4.934108629822731E-002,-6.882840991020203E-001,-7.068774104118347E-001,-5.326468870043755E-002,4.934108629822731E-002,-6.882840991020203E-001,-7.068774104118347E-001,
7.736666666666666E+008,-4.660693556070328E-002,5.596682429313660E-002,-7.004691362380981E-001,-7.026744484901428E-001,-4.660693556070328E-002,5.596682429313660E-002,-7.004691362380981E-001,-7.026744484901428E-001,
7.820333333333334E+008,-3.765628114342690E-002,6.001744046807289E-002,-7.338256239891052E-001,-6.737045645713806E-001,-3.765628114342690E-002,6.001744046807289E-002,-7.338256239891052E-001,-6.737045645713806E-001,
7.904000000000000E+008,-2.758711203932762E-002,5.886961519718170E-002,-7.429485321044922E-001,-6.552907228469849E-001,-2.758711203932762E-002,5.886961519718170E-002,-7.429485321044922E-001,-6.552907228469849E-001,
7.987666666666666E+008,-2.333162538707256E-002,5.377560481429100E-002,-7.485651373863220E-001,-6.395024061203003E-001,-2.333162538707256E-002,5.377560481429100E-002,-7.485651373863220E-001,-6.395024061203003E-001,
8.071333333333334E+008,-2.153842523694038E-002,4.735288769006729E-002,-7.741613388061523E-001,-6.069729328155518E-001,-2.153842523694038E-002,4.735288769006729E-002,-7.741613388061523E-001,-6.069729328155518E-001,
8.155000000000000E+008,-2.455767057836056E-002,4.046012833714485E-002,-8.012100458145142E-001,-5.956992506980896E-001,-2.455767057836056E-002,4.046012833714485E-002,-8.012100458145142E-001,-5.956992506980896E-001,
8.238666666666666E+008,-3.133498877286911E-002,3.857071325182915E-002,-8.071120977401733E-001,-5.725949406623840E-001,-3.133498877286911E-002,3.857071325182915E-002,-8.071120977401733E-001,-5.725949406623840E-001,
8.322333333333334E+008,-3.701415657997131E-002,4.009252041578293E-002,-8.163512945175171E-001,-5.540880560874939E-001,-3.701415657997131E-002,4.009252041578293E-002,-8.163512945175171E-001,-5.540880560874939E-001,
8.406000000000000E+008,-4.176366701722145E-002,4.349784925580025E-002,-8.285456895828247E-001,-5.318890810012817E-001,-4.176366701722145E-002,4.349784925580025E-002,-8.285456895828247E-001,-5.318890810012817E-001,
8.489666666666668E+008,-4.312288016080856E-002,5.466634035110474E-002,-8.405705094337463E-001,-5.020126104354858E-001,-4.312288016080856E-002,5.466634035110474E-002,-8.405705094337463E-001,-5.020126104354858E-001,
8.573333333333334E+008,-4.074758663773537E-002,6.260651350021362E-002,-8.424810767173767E-001,-4.716066420078278E-001,-4.074758663773537E-002,6.260651350021362E-002,-8.424810767173767E-001,-4.716066420078278E-001,
8.657000000000000E+008,-3.527339175343514E-002,7.011733949184418E-002,-8.711057305335999E-001,-4.749501943588257E-001,-3.527339175343514E-002,7.011733949184418E-002,-8.711057305335999E-001,-4.749501943588257E-001,
8.740666666666668E+008,-2.596097625792027E-002,7.519050687551498E-002,-8.754198551177979E-001,-4.497192203998566E-001,-2.596097625792027E-002,7.519050687551498E-002,-8.754198551177979E-001,-4.497192203998566E-001,
8.824333333333334E+008,-1.746318116784096E-002,7.653887569904327E-002,-8.949436545372009E-001,-4.254680573940277E-001,-1.746318116784096E-002,7.653887569904327E-002,-8.949436545372009E-001,-4.254680573940277E-001,
8.908000000000000E+008,-9.058835916221142E-003,7.300917804241180E-002,-9.084330797195435E-001,-4.073720276355743E-001,-9.058835916221142E-003,7.300917804241180E-002,-9.084330797195435E-001,-4.073720276355743E-001,
8.991666666666668E+008,-3.444289322942495E-003,6.728463619947434E-002,-9.093981385231018E-001,-3.797842264175415E-001,-3.444289322942495E-003,6.728463619947434E-002,-9.093981385231018E-001,-3.797842264175415E-001,
9.075333333333334E+008,-3.062599105760455E-003,5.972304567694664E-002,-9.222422242164612E-001,-3.552419245243073E-001,-3.062599105760455E-003,5.972304567694664E-002,-9.222422242164612E-001,-3.552419245243073E-001,
9.159000000000000E+008,-5.911697633564472E-003,5.393331870436668E-002,-9.435840249061585E-001,-3.297215998172760E-001,-5.911697633564472E-003,5.393331870436668E-002,-9.435840249061585E-001,-3.297215998172760E-001,
9.242666666666668E+008,-1.269242446869612E-002,5.418300628662109E-002,-9.349200129508972E-001,-3.084567189216614E-001,-1.269242446869612E-002,5.418300628662109E-002,-9.349200129508972E-001,-3.084567189216614E-001,
9.326333333333334E+008,-1.766830869019032E-002,5.639442428946495E-002,-9.504515528678894E-001,-2.933503985404968E-001,-1.766830869019032E-002,5.639442428946495E-002,-9.504515528678894E-001,-2.933503985404968E-001,
9.410000000000000E+008,-2.165800891816616E-002,6.082357093691826E-002,-9.605491757392883E-001,-2.577209472656250E-001,-2.165800891816616E-002,6.082357093691826E-002,-9.605491757392883E-001,-2.577209472656250E-001,
9.493666666666668E+008,-2.286098711192608E-002,7.000447064638138E-002,-9.650705456733704E-001,-2.259822338819504E-001,-2.286098711192608E-002,7.000447064638138E-002,-9.650705456733704E-001,-2.259822338819504E-001,
9.577333333333334E+008,-1.893927156925201E-002,7.978237420320511E-002,-9.706833362579346E-001,-2.129916697740555E-001,-1.893927156925201E-002,7.978237420320511E-002,-9.706833362579346E-001,-2.129916697740555E-001,
9.661000000000000E+008,-9.912217967212200E-003,8.631438016891480E-002,-9.712845087051392E-001,-1.707536727190018E-001,-9.912217967212200E-003,8.631438016891480E-002,-9.712845087051392E-001,-1.707536727190018E-001,
9.744666666666668E+008,1.189296599477530E-003,8.633266389369965E-002,-9.694076776504517E-001,-1.602987647056580E-001,1.189296599477530E-003,8.633266389369965E-002,-9.694076776504517E-001,-1.602987647056580E-001,
9.828333333333334E+008,1.069440785795450E-002,8.724198490381241E-002,-9.846732020378113E-001,-1.403202712535858E-001,1.069440785795450E-002,8.724198490381241E-002,-9.846732020378113E-001,-1.403202712535858E-001,
9.912000000000000E+008,2.130037732422352E-002,8.072354644536972E-002,-9.819689989089966E-001,-1.184205785393715E-001,2.130037732422352E-002,8.072354644536972E-002,-9.819689989089966E-001,-1.184205785393715E-001,
9.995666666666668E+008,2.507132291793823E-002,7.289428263902664E-002,-9.938029646873474E-001,-8.183669298887253E-002,2.507132291793823E-002,7.289428263902664E-002,-9.938029646873474E-001,-8.183669298887253E-002,
1.007933333333333E+009,2.861388027667999E-002,6.320884823799133E-002,-1.007203102111816E+000,-6.325481832027435E-002,2.861388027667999E-002,6.320884823799133E-002,-1.007203102111816E+000,-6.325481832027435E-002,
1.016300000000000E+009,2.233810722827911E-002,5.720842629671097E-002,-9.942603111267090E-001,-3.761997818946838E-002,2.233810722827911E-002,5.720842629671097E-002,-9.942603111267090E-001,-3.761997818946838E-002,
1.024666666666667E+009,1.434356253594160E-002,5.350600928068161E-002,-9.894408583641052E-001,-1.133271865546703E-002,1.434356253594160E-002,5.350600928068161E-002,-9.894408583641052E-001,-1.133271865546703E-002,
1.033033333333333E+009,9.282150305807591E-003,5.842357501387596E-002,-9.963432550430298E-001,1.548370998352766E-002,9.282150305807591E-003,5.842357501387596E-002,-9.963432550430298E-001,1.548370998352766E-002,
1.041400000000000E+009,2.778994617983699E-003,6.353749334812164E-002,-9.956530332565308E-001,3.720740601420403E-002,2.778994617983699E-003,6.353749334812164E-002,-9.956530332565308E-001,3.720740601420403E-002,
1.049766666666667E+009,6.224089302122593E-003,7.291159033775330E-002,-9.811867475509644E-001,7.283446192741394E-002,6.224089302122593E-003,7.291159033775330E-002,-9.811867475509644E-001,7.283446192741394E-002,
1.058133333333333E+009,1.098024006932974E-002,8.199229091405869E-002,-9.823369979858398E-001,9.520587325096130E-002,1.098024006932974E-002,8.199229091405869E-002,-9.823369979858398E-001,9.520587325096130E-002,
1.066500000000000E+009,2.290764451026917E-002,8.589020371437073E-002,-9.966704845428467E-001,1.292856335639954E-001,2.290764451026917E-002,8.589020371437073E-002,-9.966704845428467E-001,1.292856335639954E-001,
1.074866666666667E+009,3.696500882506371E-002,8.400655537843704E-002,-9.903965592384338E-001,1.497386395931244E-001,3.696500882506371E-002,8.400655537843704E-002,-9.903965592384338E-001,1.497386395931244E-001,
1.083233333333334E+009,4.613738507032394E-002,7.550607621669769E-002,-9.736276865005493E-001,1.704548299312592E-001,4.613738507032394E-002,7.550607621669769E-002,-9.736276865005493E-001,1.704548299312592E-001,
1.091600000000000E+009,5.280162394046783E-002,6.457675993442535E-002,-9.554567933082581E-001,1.898149549961090E-001,5.280162394046783E-002,6.457675993442535E-002,-9.554567933082581E-001,1.898149549961090E-001,
1.099966666666667E+009,5.185398459434509E-002,5.090280249714851E-002,-9.504001140594482E-001,2.280309200286865E-001,5.185398459434509E-002,5.090280249714851E-002,-9.504001140594482E-001,2.280309200286865E-001,
1.108333333333334E+009,4.366497322916985E-002,4.309014976024628E-002,-9.515920281410217E-001,2.369598448276520E-001,4.366497322916985E-002,4.309014976024628E-002,-9.515920281410217E-001,2.369598448276520E-001,
1.116700000000000E+009,3.307745978236198E-002,4.016072303056717E-002,-9.437369108200073E-001,2.706303000450134E-001,3.307745978236198E-002,4.016072303056717E-002,-9.437369108200073E-001,2.706303000450134E-001,
1.125066666666667E+009,2.194259688258171E-002,4.517544806003571E-002,-9.432205557823181E-001,2.867978513240814E-001,2.194259688258171E-002,4.517544806003571E-002,-9.432205557823181E-001,2.867978513240814E-001,
1.133433333333334E+009,1.426209975033999E-002,5.546455457806587E-002,-9.402582645416260E-001,3.322823941707611E-001,1.426209975033999E-002,5.546455457806587E-002,-9.402582645416260E-001,3.322823941707611E-001,
1.141800000000000E+009,1.352887321263552E-002,6.896043568849564E-002,-9.165891408920288E-001,3.461910784244537E-001,1.352887321263552E-002,6.896043568849564E-002,-9.165891408920288E-001,3.461910784244537E-001,
1.150166666666667E+009,2.291540242731571E-002,8.308386802673340E-002,-9.081261157989502E-001,3.478091657161713E-001,2.291540242731571E-002,8.308386802673340E-002,-9.081261157989502E-001,3.478091657161713E-001,
1.158533333333334E+009,3.937916085124016E-002,8.966493606567383E-002,-9.001054167747498E-001,3.869039714336395E-001,3.937916085124016E-002,8.966493606567383E-002,-9.001054167747498E-001,3.869039714336395E-001,
1.166900000000000E+009,5.902131274342537E-002,8.874995261430740E-002,-8.834044933319092E-001,4.069084227085114E-001,5.902131274342537E-002,8.874995261430740E-002,-8.834044933319092E-001,4.069084227085114E-001,
1.175266666666667E+009,7.508283853530884E-002,7.692918926477432E-002,-8.769997358322144E-001,4.371571838855743E-001,7.508283853530884E-002,7.692918926477432E-002,-8.769997358322144E-001,4.371571838855743E-001,
1.183633333333334E+009,8.713530004024506E-002,6.146202608942986E-002,-8.757345676422119E-001,4.484450519084930E-001,8.713530004024506E-002,6.146202608942986E-002,-8.757345676422119E-001,4.484450519084930E-001,
1.192000000000000E+009,8.683361113071442E-002,4.222133755683899E-002,-8.627012968063355E-001,4.703848361968994E-001,8.683361113071442E-002,4.222133755683899E-002,-8.627012968063355E-001,4.703848361968994E-001,
1.200366666666667E+009,7.710846513509750E-002,2.578352764248848E-002,-8.502035140991211E-001,4.914365112781525E-001,7.710846513509750E-002,2.578352764248848E-002,-8.502035140991211E-001,4.914365112781525E-001,
1.208733333333334E+009,6.218066811561585E-002,1.740225963294506E-002,-8.430668115615845E-001,5.342473983764648E-001,6.218066811561585E-002,1.740225963294506E-002,-8.430668115615845E-001,5.342473983764648E-001,
1.217100000000000E+009,4.632291942834854E-002,1.915178447961807E-002,-8.387331366539002E-001,5.436372756958008E-001,4.632291942834854E-002,1.915178447961807E-002,-8.387331366539002E-001,5.436372756958008E-001,
1.225466666666667E+009,3.430772945284843E-002,3.093463554978371E-002,-8.054622411727905E-001,5.675777792930603E-001,3.430772945284843E-002,3.093463554978371E-002,-8.054622411727905E-001,5.675777792930603E-001,
1.233833333333334E+009,3.061124868690968E-002,4.784401878714562E-002,-8.000252246856690E-001,5.798284411430359E-001,3.061124868690968E-002,4.784401878714562E-002,-8.000252246856690E-001,5.798284411430359E-001,
1.242200000000000E+009,3.963284194469452E-002,6.210544332861900E-002,-7.743124365806580E-001,6.133472919464111E-001,3.963284194469452E-002,6.210544332861900E-002,-7.743124365806580E-001,6.133472919464111E-001,
1.250566666666667E+009,5.326947569847107E-002,7.157690078020096E-002,-7.524820566177368E-001,6.180868744850159E-001,5.326947569847107E-002,7.157690078020096E-002,-7.524820566177368E-001,6.180868744850159E-001,
1.258933333333334E+009,7.382376492023468E-002,7.070571929216385E-002,-7.464312911033630E-001,6.398737430572510E-001,7.382376492023468E-002,7.070571929216385E-002,-7.464312911033630E-001,6.398737430572510E-001,
1.267300000000000E+009,9.328629076480866E-002,5.883825197815895E-002,-7.272190451622009E-001,6.538669466972351E-001,9.328629076480866E-002,5.883825197815895E-002,-7.272190451622009E-001,6.538669466972351E-001,
1.275666666666667E+009,1.021469458937645E-001,3.984897583723068E-002,-7.147479057312012E-001,6.614475846290588E-001,1.021469458937645E-001,3.984897583723068E-002,-7.147479057312012E-001,6.614475846290588E-001,
1.284033333333334E+009,1.038656011223793E-001,1.827831938862801E-002,-6.990473270416260E-001,7.035127282142639E-001,1.038656011223793E-001,1.827831938862801E-002,-6.990473270416260E-001,7.035127282142639E-001,
1.292400000000000E+009,9.327881038188934E-002,-6.313662161119282E-004,-6.867467164993286E-001,7.069413065910339E-001,9.327881038188934E-002,-6.313662161119282E-004,-6.867467164993286E-001,7.069413065910339E-001,
1.300766666666667E+009,7.382667064666748E-002,-8.963244967162609E-003,-6.636931300163269E-001,7.311149239540100E-001,7.382667064666748E-002,-8.963244967162609E-003,-6.636931300163269E-001,7.311149239540100E-001,
1.309133333333334E+009,5.385899171233177E-002,-7.087059784680605E-003,-6.388766169548035E-001,7.452661991119385E-001,5.385899171233177E-002,-7.087059784680605E-003,-6.388766169548035E-001,7.452661991119385E-001,
1.317500000000000E+009,3.983715549111366E-002,5.465894937515259E-003,-6.254687905311585E-001,7.759374976158142E-001,3.983715549111366E-002,5.465894937515259E-003,-6.254687905311585E-001,7.759374976158142E-001,
1.325866666666667E+009,3.600980713963509E-002,2.286577783524990E-002,-6.057463884353638E-001,7.907195091247559E-001,3.600980713963509E-002,2.286577783524990E-002,-6.057463884353638E-001,7.907195091247559E-001,
1.334233333333334E+009,4.497667774558067E-002,4.038351029157639E-002,-5.868377685546875E-001,7.963271141052246E-001,4.497667774558067E-002,4.038351029157639E-002,-5.868377685546875E-001,7.963271141052246E-001,
1.342600000000000E+009,6.100074946880341E-002,4.883062466979027E-002,-5.684010982513428E-001,8.137544989585877E-001,6.100074946880341E-002,4.883062466979027E-002,-5.684010982513428E-001,8.137544989585877E-001,
1.350966666666667E+009,8.125604689121246E-002,4.511731117963791E-002,-5.420021414756775E-001,8.249995708465576E-001,8.125604689121246E-002,4.511731117963791E-002,-5.420021414756775E-001,8.249995708465576E-001,
1.359333333333334E+009,9.585863351821899E-002,3.065820597112179E-002,-5.289592742919922E-001,8.244988322257996E-001,9.585863351821899E-002,3.065820597112179E-002,-5.289592742919922E-001,8.244988322257996E-001,
1.367700000000000E+009,1.010682731866837E-001,1.014114357531071E-002,-4.951758384704590E-001,8.423945903778076E-001,1.010682731866837E-001,1.014114357531071E-002,-4.951758384704590E-001,8.423945903778076E-001,
1.376066666666667E+009,9.664189070463181E-002,-1.266029011458159E-002,-4.799511432647705E-001,8.515272736549377E-001,9.664189070463181E-002,-1.266029011458159E-002,-4.799511432647705E-001,8.515272736549377E-001,
1.384433333333334E+009,7.936020940542221E-002,-2.801923081278801E-002,-4.650982916355133E-001,8.829599022865295E-001,7.936020940542221E-002,-2.801923081278801E-002,-4.650982916355133E-001,8.829599022865295E-001,
1.392800000000000E+009,5.871364846825600E-002,-3.018042631447315E-002,-4.434558451175690E-001,8.905181288719177E-001,5.871364846825600E-002,-3.018042631447315E-002,-4.434558451175690E-001,8.905181288719177E-001,
1.401166666666667E+009,3.888971358537674E-002,-2.243107743561268E-002,-4.164709448814392E-001,8.976234197616577E-001,3.888971358537674E-002,-2.243107743561268E-002,-4.164709448814392E-001,8.976234197616577E-001,
1.409533333333334E+009,2.634199894964695E-002,-4.886609036475420E-003,-3.870129883289337E-001,9.122033119201660E-001,2.634199894964695E-002,-4.886609036475420E-003,-3.870129883289337E-001,9.122033119201660E-001,
1.417900000000000E+009,2.838821150362492E-002,1.855522021651268E-002,-3.669055402278900E-001,9.077591896057129E-001,2.838821150362492E-002,1.855522021651268E-002,-3.669055402278900E-001,9.077591896057129E-001,
1.426266666666667E+009,4.016800597310066E-002,3.525219112634659E-002,-3.291727602481842E-001,9.326298236846924E-001,4.016800597310066E-002,3.525219112634659E-002,-3.291727602481842E-001,9.326298236846924E-001,
1.434633333333334E+009,6.115970388054848E-002,4.301230236887932E-002,-3.198851943016052E-001,9.273501634597778E-001,6.115970388054848E-002,4.301230236887932E-002,-3.198851943016052E-001,9.273501634597778E-001,
1.443000000000000E+009,8.174284547567368E-002,3.929963335394859E-002,-2.948886752128601E-001,9.349014163017273E-001,8.174284547567368E-002,3.929963335394859E-002,-2.948886752128601E-001,9.349014163017273E-001,
1.451366666666667E+009,9.738927334547043E-002,2.284742519259453E-002,-2.692138254642487E-001,9.351003766059876E-001,9.738927334547043E-002,2.284742519259453E-002,-2.692138254642487E-001,9.351003766059876E-001,
1.459733333333334E+009,1.031051278114319E-001,1.784063177183271E-003,-2.428131997585297E-001,9.611821174621582E-001,1.031051278114319E-001,1.784063177183271E-003,-2.428131997585297E-001,9.611821174621582E-001,
