% Version 1.00
%
%freq[Hz],re:Trc1_S11,im:Trc1_S11,re:Trc2_S21,im:Trc2_S21,re:Trc3_S11,im:Trc3_S11,re:Trc4_S21,im:Trc4_S21,
6.900000000000000E+008,-5.786950886249542E-002,4.495459794998169E-002,-5.132948160171509E-001,-8.438335657119751E-001,-5.786950886249542E-002,4.495459794998169E-002,-5.132948160171509E-001,-8.438335657119751E-001,
6.983666666666666E+008,-4.966133832931519E-002,4.545734077692032E-002,-5.397442579269409E-001,-8.326475620269775E-001,-4.966133832931519E-002,4.545734077692032E-002,-5.397442579269409E-001,-8.326475620269775E-001,
7.067333333333334E+008,-4.415551573038101E-002,4.109318926930428E-002,-5.612970590591431E-001,-8.074905872344971E-001,-4.415551573038101E-002,4.109318926930428E-002,-5.612970590591431E-001,-8.074905872344971E-001,
7.151000000000000E+008,-4.409972578287125E-002,3.415261581540108E-002,-5.961055755615234E-001,-8.036139607429504E-001,-4.409972578287125E-002,3.415261581540108E-002,-5.961055755615234E-001,-8.036139607429504E-001,
7.234666666666666E+008,-4.635354131460190E-002,2.935852296650410E-002,-6.124057769775391E-001,-7.887095212936401E-001,-4.635354131460190E-002,2.935852296650410E-002,-6.124057769775391E-001,-7.887095212936401E-001,
7.318333333333334E+008,-5.363826081156731E-002,2.784121036529541E-002,-6.266059279441834E-001,-7.705457806587219E-001,-5.363826081156731E-002,2.784121036529541E-002,-6.266059279441834E-001,-7.705457806587219E-001,
7.402000000000000E+008,-5.952683091163635E-002,3.050078265368938E-002,-6.379097104072571E-001,-7.451665401458740E-001,-5.952683091163635E-002,3.050078265368938E-002,-6.379097104072571E-001,-7.451665401458740E-001,
7.485666666666666E+008,-6.435238569974899E-002,3.829170390963554E-002,-6.675187945365906E-001,-7.318984866142273E-001,-6.435238569974899E-002,3.829170390963554E-002,-6.675187945365906E-001,-7.318984866142273E-001,
7.569333333333334E+008,-6.810467690229416E-002,4.834723100066185E-002,-6.857604980468750E-001,-7.174735069274902E-001,-6.810467690229416E-002,4.834723100066185E-002,-6.857604980468750E-001,-7.174735069274902E-001,
7.653000000000000E+008,-6.184304133057594E-002,5.741533637046814E-002,-6.937162876129150E-001,-6.987683773040772E-001,-6.184304133057594E-002,5.741533637046814E-002,-6.937162876129150E-001,-6.987683773040772E-001,
7.736666666666666E+008,-5.532628670334816E-002,6.408789008855820E-002,-7.065195441246033E-001,-6.933831572532654E-001,-5.532628670334816E-002,6.408789008855820E-002,-7.065195441246033E-001,-6.933831572532654E-001,
7.820333333333334E+008,-4.636774584650993E-002,6.790643185377121E-002,-7.388007044792175E-001,-6.662226915359497E-001,-4.636774584650993E-002,6.790643185377121E-002,-7.388007044792175E-001,-6.662226915359497E-001,
7.904000000000000E+008,-3.652153909206390E-002,6.704439222812653E-002,-7.480418086051941E-001,-6.480284333229065E-001,-3.652153909206390E-002,6.704439222812653E-002,-7.480418086051941E-001,-6.480284333229065E-001,
7.987666666666666E+008,-3.190248459577560E-002,6.234618276357651E-002,-7.554350495338440E-001,-6.313996911048889E-001,-3.190248459577560E-002,6.234618276357651E-002,-7.554350495338440E-001,-6.313996911048889E-001,
8.071333333333334E+008,-3.049381822347641E-002,5.627194792032242E-002,-7.797946333885193E-001,-5.995191335678101E-001,-3.049381822347641E-002,5.627194792032242E-002,-7.797946333885193E-001,-5.995191335678101E-001,
8.155000000000000E+008,-3.330621868371964E-002,4.942809417843819E-002,-8.054702877998352E-001,-5.871338248252869E-001,-3.330621868371964E-002,4.942809417843819E-002,-8.054702877998352E-001,-5.871338248252869E-001,
8.238666666666666E+008,-3.971442952752113E-002,4.807449504733086E-002,-8.116683363914490E-001,-5.630713701248169E-001,-3.971442952752113E-002,4.807449504733086E-002,-8.116683363914490E-001,-5.630713701248169E-001,
8.322333333333334E+008,-4.492191597819328E-002,5.006506666541100E-002,-8.212073445320129E-001,-5.445147156715393E-001,-4.492191597819328E-002,5.006506666541100E-002,-8.212073445320129E-001,-5.445147156715393E-001,
8.406000000000000E+008,-4.929305613040924E-002,5.413928627967835E-002,-8.337910175323486E-001,-5.233121514320374E-001,-4.929305613040924E-002,5.413928627967835E-002,-8.337910175323486E-001,-5.233121514320374E-001,
8.489666666666668E+008,-5.010469257831574E-002,6.569256633520126E-002,-8.445829749107361E-001,-4.924533963203430E-001,-5.010469257831574E-002,6.569256633520126E-002,-8.445829749107361E-001,-4.924533963203430E-001,
8.573333333333334E+008,-4.746538773179054E-002,7.363519817590714E-002,-8.463308215141296E-001,-4.612399339675903E-001,-4.746538773179054E-002,7.363519817590714E-002,-8.463308215141296E-001,-4.612399339675903E-001,
8.657000000000000E+008,-4.172895476222038E-002,8.114773780107498E-002,-8.742535114288330E-001,-4.645981490612030E-001,-4.172895476222038E-002,8.114773780107498E-002,-8.742535114288330E-001,-4.645981490612030E-001,
8.740666666666668E+008,-3.218782693147659E-002,8.609728515148163E-002,-8.803611993789673E-001,-4.403000175952911E-001,-3.218782693147659E-002,8.609728515148163E-002,-8.803611993789673E-001,-4.403000175952911E-001,
8.824333333333334E+008,-2.373822219669819E-002,8.787073940038681E-002,-8.972101211547852E-001,-4.155782759189606E-001,-2.373822219669819E-002,8.787073940038681E-002,-8.972101211547852E-001,-4.155782759189606E-001,
8.908000000000000E+008,-1.563430204987526E-002,8.425647765398026E-002,-9.107075333595276E-001,-3.979519605636597E-001,-1.563430204987526E-002,8.425647765398026E-002,-9.107075333595276E-001,-3.979519605636597E-001,
8.991666666666668E+008,-1.004713680595160E-002,7.841937243938446E-002,-9.107241034507752E-001,-3.709362149238586E-001,-1.004713680595160E-002,7.841937243938446E-002,-9.107241034507752E-001,-3.709362149238586E-001,
9.075333333333334E+008,-9.260995313525200E-003,7.169102877378464E-002,-9.254951477050781E-001,-3.438135385513306E-001,-9.260995313525200E-003,7.169102877378464E-002,-9.254951477050781E-001,-3.438135385513306E-001,
9.159000000000000E+008,-1.212738826870918E-002,6.629350781440735E-002,-9.457382559776306E-001,-3.185386657714844E-001,-1.212738826870918E-002,6.629350781440735E-002,-9.457382559776306E-001,-3.185386657714844E-001,
9.242666666666668E+008,-1.853050850331783E-002,6.688337773084641E-002,-9.365450739860535E-001,-2.971225380897522E-001,-1.853050850331783E-002,6.688337773084641E-002,-9.365450739860535E-001,-2.971225380897522E-001,
9.326333333333334E+008,-2.304336428642273E-002,6.964716315269470E-002,-9.513876438140869E-001,-2.828439176082611E-001,-2.304336428642273E-002,6.964716315269470E-002,-9.513876438140869E-001,-2.828439176082611E-001,
9.410000000000000E+008,-2.610408887267113E-002,7.437148690223694E-002,-9.612929821014404E-001,-2.451280653476715E-001,-2.610408887267113E-002,7.437148690223694E-002,-9.612929821014404E-001,-2.451280653476715E-001,
9.493666666666668E+008,-2.658909000456333E-002,8.375746756792069E-002,-9.655654430389404E-001,-2.150350958108902E-001,-2.658909000456333E-002,8.375746756792069E-002,-9.655654430389404E-001,-2.150350958108902E-001,
9.577333333333334E+008,-2.242097072303295E-002,9.378138184547424E-002,-9.714767336845398E-001,-2.013815790414810E-001,-2.242097072303295E-002,9.378138184547424E-002,-9.714767336845398E-001,-2.013815790414810E-001,
9.661000000000000E+008,-1.304324995726347E-002,1.002697646617889E-001,-9.707610607147217E-001,-1.589907258749008E-001,-1.304324995726347E-002,1.002697646617889E-001,-9.707610607147217E-001,-1.589907258749008E-001,
9.744666666666668E+008,-1.933781662955880E-003,9.989091753959656E-002,-9.669669270515442E-001,-1.488724946975708E-001,-1.933781662955880E-003,9.989091753959656E-002,-9.669669270515442E-001,-1.488724946975708E-001,
9.828333333333334E+008,7.643313147127628E-003,1.010976284742355E-001,-9.843584299087524E-001,-1.291259676218033E-001,7.643313147127628E-003,1.010976284742355E-001,-9.843584299087524E-001,-1.291259676218033E-001,
9.912000000000000E+008,1.829271391034126E-002,9.420992434024811E-002,-9.815527200698853E-001,-1.076424866914749E-001,1.829271391034126E-002,9.420992434024811E-002,-9.815527200698853E-001,-1.076424866914749E-001,
9.995666666666668E+008,2.206969074904919E-002,8.686323463916779E-002,-9.933061003684998E-001,-6.973323225975037E-002,2.206969074904919E-002,8.686323463916779E-002,-9.933061003684998E-001,-6.973323225975037E-002,
1.007933333333333E+009,2.579875662922859E-002,7.784082740545273E-002,-1.008412837982178E+000,-5.456350371241570E-002,2.579875662922859E-002,7.784082740545273E-002,-1.008412837982178E+000,-5.456350371241570E-002,
1.016300000000000E+009,2.011271379888058E-002,7.201577723026276E-002,-9.944135546684265E-001,-2.632870152592659E-002,2.011271379888058E-002,7.201577723026276E-002,-9.944135546684265E-001,-2.632870152592659E-002,
1.024666666666667E+009,1.256183348596096E-002,6.872332096099854E-002,-9.906159043312073E-001,2.141601289622486E-004,1.256183348596096E-002,6.872332096099854E-002,-9.906159043312073E-001,2.141601289622486E-004,
1.033033333333333E+009,8.307545445859432E-003,7.359665632247925E-002,-9.970794320106506E-001,2.655227854847908E-002,8.307545445859432E-003,7.359665632247925E-002,-9.970794320106506E-001,2.655227854847908E-002,
1.041400000000000E+009,2.532718935981393E-003,7.900296896696091E-002,-9.962725043296814E-001,4.776851832866669E-002,2.532718935981393E-003,7.900296896696091E-002,-9.962725043296814E-001,4.776851832866669E-002,
1.049766666666667E+009,6.899004336446524E-003,8.814235776662827E-002,-9.801926016807556E-001,8.359366655349731E-002,6.899004336446524E-003,8.814235776662827E-002,-9.801926016807556E-001,8.359366655349731E-002,
1.058133333333333E+009,1.224256958812475E-002,9.734875708818436E-002,-9.820021986961365E-001,1.067754998803139E-001,1.224256958812475E-002,9.734875708818436E-002,-9.820021986961365E-001,1.067754998803139E-001,
1.066500000000000E+009,2.420522831380367E-002,1.010308340191841E-001,-9.952804446220398E-001,1.414949297904968E-001,2.420522831380367E-002,1.010308340191841E-001,-9.952804446220398E-001,1.414949297904968E-001,
1.074866666666667E+009,3.857834264636040E-002,9.900773316621780E-002,-9.890035390853882E-001,1.625555157661438E-001,3.857834264636040E-002,9.900773316621780E-002,-9.890035390853882E-001,1.625555157661438E-001,
1.083233333333334E+009,4.728640243411064E-002,9.050639718770981E-002,-9.720156788825989E-001,1.828265488147736E-001,4.728640243411064E-002,9.050639718770981E-002,-9.720156788825989E-001,1.828265488147736E-001,
1.091600000000000E+009,5.368346720933914E-002,7.997959107160568E-002,-9.541825652122498E-001,2.008856236934662E-001,5.368346720933914E-002,7.997959107160568E-002,-9.541825652122498E-001,2.008856236934662E-001,
1.099966666666667E+009,5.274363607168198E-002,6.651247292757034E-002,-9.483910799026489E-001,2.399115711450577E-001,5.274363607168198E-002,6.651247292757034E-002,-9.483910799026489E-001,2.399115711450577E-001,
1.108333333333334E+009,4.452289640903473E-002,5.900474637746811E-002,-9.491411447525024E-001,2.485338300466538E-001,4.452289640903473E-002,5.900474637746811E-002,-9.491411447525024E-001,2.485338300466538E-001,
1.116700000000000E+009,3.451664745807648E-002,5.653404816985130E-002,-9.408928155899048E-001,2.811909317970276E-001,3.451664745807648E-002,5.653404816985130E-002,-9.408928155899048E-001,2.811909317970276E-001,
1.125066666666667E+009,2.419843524694443E-002,6.185409426689148E-002,-9.396413564682007E-001,2.990706562995911E-001,2.419843524694443E-002,6.185409426689148E-002,-9.396413564682007E-001,2.990706562995911E-001,
1.133433333333334E+009,1.781648769974709E-002,7.195586711168289E-002,-9.366684556007385E-001,3.446475863456726E-001,1.781648769974709E-002,7.195586711168289E-002,-9.366684556007385E-001,3.446475863456726E-001,
1.141800000000000E+009,1.830611191689968E-002,8.543298393487930E-002,-9.111040830612183E-001,3.593269288539887E-001,1.830611191689968E-002,8.543298393487930E-002,-9.111040830612183E-001,3.593269288539887E-001,
1.150166666666667E+009,2.857401035726070E-002,9.880284219980240E-002,-9.029322266578674E-001,3.598662316799164E-001,2.857401035726070E-002,9.880284219980240E-002,-9.029322266578674E-001,3.598662316799164E-001,
1.158533333333334E+009,4.576998203992844E-002,1.051151379942894E-001,-8.947969079017639E-001,3.984214067459106E-001,4.576998203992844E-002,1.051151379942894E-001,-8.947969079017639E-001,3.984214067459106E-001,
1.166900000000000E+009,6.583827733993530E-002,1.039477959275246E-001,-8.782683014869690E-001,4.191388189792633E-001,6.583827733993530E-002,1.039477959275246E-001,-8.782683014869690E-001,4.191388189792633E-001,
1.175266666666667E+009,8.151844143867493E-002,9.180168807506561E-002,-8.713583350181580E-001,4.480134546756744E-001,8.151844143867493E-002,9.180168807506561E-002,-8.713583350181580E-001,4.480134546756744E-001,
1.183633333333334E+009,9.316762536764145E-002,7.634150981903076E-002,-8.687346577644348E-001,4.583607912063599E-001,9.316762536764145E-002,7.634150981903076E-002,-8.687346577644348E-001,4.583607912063599E-001,
1.192000000000000E+009,9.286966919898987E-002,5.750209465622902E-002,-8.575546741485596E-001,4.823483228683472E-001,9.286966919898987E-002,5.750209465622902E-002,-8.575546741485596E-001,4.823483228683472E-001,
1.200366666666667E+009,8.284741640090942E-002,4.142812266945839E-002,-8.439892530441284E-001,5.034348964691162E-001,8.284741640090942E-002,4.142812266945839E-002,-8.439892530441284E-001,5.034348964691162E-001,
1.208733333333334E+009,6.816762685775757E-002,3.315628692507744E-002,-8.355481028556824E-001,5.442208647727966E-001,6.816762685775757E-002,3.315628692507744E-002,-8.355481028556824E-001,5.442208647727966E-001,
1.217100000000000E+009,5.287739261984825E-002,3.488158807158470E-002,-8.315311074256897E-001,5.566934347152710E-001,5.287739261984825E-002,3.488158807158470E-002,-8.315311074256897E-001,5.566934347152710E-001,
1.225466666666667E+009,4.189619794487953E-002,4.677816107869148E-002,-7.984376549720764E-001,5.804649591445923E-001,4.189619794487953E-002,4.677816107869148E-002,-7.984376549720764E-001,5.804649591445923E-001,
1.233833333333334E+009,3.902521729469299E-002,6.328161060810089E-002,-7.923392653465271E-001,5.927567481994629E-001,3.902521729469299E-002,6.328161060810089E-002,-7.923392653465271E-001,5.927567481994629E-001,
1.242200000000000E+009,4.913486912846565E-002,7.691655308008194E-002,-7.652437090873718E-001,6.251452565193176E-001,4.913486912846565E-002,7.691655308008194E-002,-7.652437090873718E-001,6.251452565193176E-001,
1.250566666666667E+009,6.365083158016205E-002,8.571614325046539E-002,-7.422127723693848E-001,6.284924745559692E-001,6.365083158016205E-002,8.571614325046539E-002,-7.422127723693848E-001,6.284924745559692E-001,
1.258933333333334E+009,8.444365859031677E-002,8.426826447248459E-002,-7.359322905540466E-001,6.511724591255188E-001,8.444365859031677E-002,8.426826447248459E-002,-7.359322905540466E-001,6.511724591255188E-001,
1.267300000000000E+009,1.041850149631500E-001,7.197228819131851E-002,-7.174473404884338E-001,6.647039055824280E-001,1.041850149631500E-001,7.197228819131851E-002,-7.174473404884338E-001,6.647039055824280E-001,
1.275666666666667E+009,1.126755252480507E-001,5.319637432694435E-002,-7.049216628074646E-001,6.717801094055176E-001,1.126755252480507E-001,5.319637432694435E-002,-7.049216628074646E-001,6.717801094055176E-001,
1.284033333333334E+009,1.143350973725319E-001,3.160309791564941E-002,-6.878452897071838E-001,7.138376832008362E-001,1.143350973725319E-001,3.160309791564941E-002,-6.878452897071838E-001,7.138376832008362E-001,
1.292400000000000E+009,1.037810072302818E-001,1.362181920558214E-002,-6.777500510215759E-001,7.180065512657166E-001,1.037810072302818E-001,1.362181920558214E-002,-6.777500510215759E-001,7.180065512657166E-001,
1.300766666666667E+009,8.433822542428970E-002,5.666705779731274E-003,-6.534192562103272E-001,7.423637509346008E-001,8.433822542428970E-002,5.666705779731274E-003,-6.534192562103272E-001,7.423637509346008E-001,
1.309133333333334E+009,6.490325182676315E-002,7.540017832070589E-003,-6.273786425590515E-001,7.565923333168030E-001,6.490325182676315E-002,7.540017832070589E-003,-6.273786425590515E-001,7.565923333168030E-001,
1.317500000000000E+009,5.150639265775681E-002,2.016137726604939E-002,-6.142451167106628E-001,7.874183058738709E-001,5.150639265775681E-002,2.016137726604939E-002,-6.142451167106628E-001,7.874183058738709E-001,
1.325866666666667E+009,4.870891943573952E-002,3.704790771007538E-002,-5.931738018989563E-001,8.019388318061829E-001,4.870891943573952E-002,3.704790771007538E-002,-5.931738018989563E-001,8.019388318061829E-001,
1.334233333333334E+009,5.853324756026268E-002,5.364377424120903E-002,-5.741497874259949E-001,8.067283034324646E-001,5.853324756026268E-002,5.364377424120903E-002,-5.741497874259949E-001,8.067283034324646E-001,
1.342600000000000E+009,7.536114007234573E-002,6.112182140350342E-002,-5.551307201385498E-001,8.234310746192932E-001,7.536114007234573E-002,6.112182140350342E-002,-5.551307201385498E-001,8.234310746192932E-001,
1.350966666666667E+009,9.611716121435165E-002,5.622917413711548E-002,-5.278054475784302E-001,8.340557217597961E-001,9.611716121435165E-002,5.622917413711548E-002,-5.278054475784302E-001,8.340557217597961E-001,
1.359333333333334E+009,1.108074113726616E-001,4.110873863101006E-002,-5.146194100379944E-001,8.349882960319519E-001,1.108074113726616E-001,4.110873863101006E-002,-5.146194100379944E-001,8.349882960319519E-001,
1.367700000000000E+009,1.161114424467087E-001,2.039164863526821E-002,-4.819245636463165E-001,8.507906794548035E-001,1.161114424467087E-001,2.039164863526821E-002,-4.819245636463165E-001,8.507906794548035E-001,
1.376066666666667E+009,1.118768006563187E-001,-2.216042950749397E-003,-4.668125808238983E-001,8.607243895530701E-001,1.118768006563187E-001,-2.216042950749397E-003,-4.668125808238983E-001,8.607243895530701E-001,
1.384433333333334E+009,9.448333829641342E-002,-1.726186461746693E-002,-4.507285952568054E-001,8.917298913002014E-001,9.448333829641342E-002,-1.726186461746693E-002,-4.507285952568054E-001,8.917298913002014E-001,
1.392800000000000E+009,7.398501038551331E-002,-1.872493885457516E-002,-4.292604625225067E-001,8.997674584388733E-001,7.398501038551331E-002,-1.872493885457516E-002,-4.292604625225067E-001,8.997674584388733E-001,
1.401166666666667E+009,5.434454977512360E-002,-1.048711314797401E-002,-4.021712243556976E-001,9.065065979957581E-001,5.434454977512360E-002,-1.048711314797401E-002,-4.021712243556976E-001,9.065065979957581E-001,
1.409533333333334E+009,4.237272217869759E-002,6.699237041175365E-003,-3.701985180377960E-001,9.212375879287720E-001,4.237272217869759E-002,6.699237041175365E-003,-3.701985180377960E-001,9.212375879287720E-001,
1.417900000000000E+009,4.531276226043701E-002,2.987173013389111E-002,-3.520340025424957E-001,9.149282574653626E-001,4.531276226043701E-002,2.987173013389111E-002,-3.520340025424957E-001,9.149282574653626E-001,
1.426266666666667E+009,5.765080824494362E-002,4.525193199515343E-002,-3.119290173053742E-001,9.408101439476013E-001,5.765080824494362E-002,4.525193199515343E-002,-3.119290173053742E-001,9.408101439476013E-001,
1.434633333333334E+009,7.903348654508591E-002,5.158760026097298E-002,-3.024597764015198E-001,9.340779185295105E-001,7.903348654508591E-002,5.158760026097298E-002,-3.024597764015198E-001,9.340779185295105E-001,
1.443000000000000E+009,9.984868764877319E-002,4.654281586408615E-002,-2.779601514339447E-001,9.409994482994080E-001,9.984868764877319E-002,4.654281586408615E-002,-2.779601514339447E-001,9.409994482994080E-001,
1.451366666666667E+009,1.153063252568245E-001,2.898644283413887E-002,-2.523005604743958E-001,9.403691291809082E-001,1.153063252568245E-001,2.898644283413887E-002,-2.523005604743958E-001,9.403691291809082E-001,
1.459733333333334E+009,1.207905709743500E-001,7.553881034255028E-003,-2.253123372793198E-001,9.663944244384766E-001,1.207905709743500E-001,7.553881034255028E-003,-2.253123372793198E-001,9.663944244384766E-001,
