% Version 1.00
%
%freq[Hz],re:Trc1_S11,im:Trc1_S11,re:Trc2_S21,im:Trc2_S21,re:Trc3_S11,im:Trc3_S11,re:Trc4_S21,im:Trc4_S21,
6.900000000000000E+008,-4.066563770174980E-002,1.500062551349402E-002,-4.853705167770386E-001,-8.356066942214966E-001,-4.066563770174980E-002,1.500062551349402E-002,-4.853705167770386E-001,-8.356066942214966E-001,
6.983666666666666E+008,-3.317477181553841E-002,1.622706837952137E-002,-5.120343565940857E-001,-8.268620967864990E-001,-3.317477181553841E-002,1.622706837952137E-002,-5.120343565940857E-001,-8.268620967864990E-001,
7.067333333333334E+008,-2.769167162477970E-002,1.190360728651285E-002,-5.338361859321594E-001,-8.013153672218323E-001,-2.769167162477970E-002,1.190360728651285E-002,-5.338361859321594E-001,-8.013153672218323E-001,
7.151000000000000E+008,-2.776528522372246E-002,4.526239354163408E-003,-5.681457519531250E-001,-8.000971078872681E-001,-2.776528522372246E-002,4.526239354163408E-003,-5.681457519531250E-001,-8.000971078872681E-001,
7.234666666666666E+008,-2.965916320681572E-002,-5.007780855521560E-004,-5.820362567901611E-001,-7.840002179145813E-001,-2.965916320681572E-002,-5.007780855521560E-004,-5.820362567901611E-001,-7.840002179145813E-001,
7.318333333333334E+008,-3.696309030056000E-002,-2.577457809820771E-003,-5.994160771369934E-001,-7.683731317520142E-001,-3.696309030056000E-002,-2.577457809820771E-003,-5.994160771369934E-001,-7.683731317520142E-001,
7.402000000000000E+008,-4.312381893396378E-002,-7.559683290310204E-004,-6.100193262100220E-001,-7.432159781455994E-001,-4.312381893396378E-002,-7.559683290310204E-004,-6.100193262100220E-001,-7.432159781455994E-001,
7.485666666666666E+008,-4.853678122162819E-002,5.726987030357122E-003,-6.389954686164856E-001,-7.307997941970825E-001,-4.853678122162819E-002,5.726987030357122E-003,-6.389954686164856E-001,-7.307997941970825E-001,
7.569333333333334E+008,-5.269838124513626E-002,1.517152413725853E-002,-6.567056179046631E-001,-7.187806963920593E-001,-5.269838124513626E-002,1.517152413725853E-002,-6.567056179046631E-001,-7.187806963920593E-001,
7.653000000000000E+008,-4.793187603354454E-002,2.378422580659390E-002,-6.651558876037598E-001,-6.987910866737366E-001,-4.793187603354454E-002,2.378422580659390E-002,-6.651558876037598E-001,-6.987910866737366E-001,
7.736666666666666E+008,-4.229610785841942E-002,3.022541664540768E-002,-6.766948699951172E-001,-6.956937909126282E-001,-4.229610785841942E-002,3.022541664540768E-002,-6.766948699951172E-001,-6.956937909126282E-001,
7.820333333333334E+008,-3.448300063610077E-002,3.432320430874825E-002,-7.099610567092896E-001,-6.687536835670471E-001,-3.448300063610077E-002,3.432320430874825E-002,-7.099610567092896E-001,-6.687536835670471E-001,
7.904000000000000E+008,-2.523802593350411E-002,3.351985290646553E-002,-7.192463278770447E-001,-6.505198478698731E-001,-2.523802593350411E-002,3.351985290646553E-002,-7.192463278770447E-001,-6.505198478698731E-001,
7.987666666666666E+008,-2.193088456988335E-002,2.839094586670399E-002,-7.244702577590942E-001,-6.351562738418579E-001,-2.193088456988335E-002,2.839094586670399E-002,-7.244702577590942E-001,-6.351562738418579E-001,
8.071333333333334E+008,-1.992159150540829E-002,2.189858071506023E-002,-7.509534358978272E-001,-6.040498614311218E-001,-1.992159150540829E-002,2.189858071506023E-002,-7.509534358978272E-001,-6.040498614311218E-001,
8.155000000000000E+008,-2.309965156018734E-002,1.543995738029480E-002,-7.773666977882385E-001,-5.938667058944702E-001,-2.309965156018734E-002,1.543995738029480E-002,-7.773666977882385E-001,-5.938667058944702E-001,
8.238666666666666E+008,-2.966544032096863E-002,1.332243438810110E-002,-7.830923795700073E-001,-5.704230666160584E-001,-2.966544032096863E-002,1.332243438810110E-002,-7.830923795700073E-001,-5.704230666160584E-001,
8.322333333333334E+008,-3.534290194511414E-002,1.463313307613134E-002,-7.929148077964783E-001,-5.529159307479858E-001,-3.534290194511414E-002,1.463313307613134E-002,-7.929148077964783E-001,-5.529159307479858E-001,
8.406000000000000E+008,-4.002753645181656E-002,1.758874580264092E-002,-8.050498366355896E-001,-5.314020514488220E-001,-4.002753645181656E-002,1.758874580264092E-002,-8.050498366355896E-001,-5.314020514488220E-001,
8.489666666666668E+008,-4.198471829295158E-002,2.832749485969544E-002,-8.165721297264099E-001,-5.025673508644104E-001,-4.198471829295158E-002,2.832749485969544E-002,-8.165721297264099E-001,-5.025673508644104E-001,
8.573333333333334E+008,-4.026497527956963E-002,3.606725111603737E-002,-8.188572525978088E-001,-4.724449217319489E-001,-4.026497527956963E-002,3.606725111603737E-002,-8.188572525978088E-001,-4.724449217319489E-001,
8.657000000000000E+008,-3.560785949230194E-002,4.377355426549912E-002,-8.461789488792419E-001,-4.768515527248383E-001,-3.560785949230194E-002,4.377355426549912E-002,-8.461789488792419E-001,-4.768515527248383E-001,
8.740666666666668E+008,-2.736880257725716E-002,4.885753616690636E-002,-8.521369099617004E-001,-4.531318545341492E-001,-2.736880257725716E-002,4.885753616690636E-002,-8.521369099617004E-001,-4.531318545341492E-001,
8.824333333333334E+008,-1.991874165832996E-002,5.044700577855110E-002,-8.704594373703003E-001,-4.298163950443268E-001,-1.991874165832996E-002,5.044700577855110E-002,-8.704594373703003E-001,-4.298163950443268E-001,
8.908000000000000E+008,-1.252924278378487E-002,4.732198640704155E-002,-8.844465017318726E-001,-4.123403131961823E-001,-1.252924278378487E-002,4.732198640704155E-002,-8.844465017318726E-001,-4.123403131961823E-001,
8.991666666666668E+008,-7.681375369429588E-003,4.188180342316628E-002,-8.841962218284607E-001,-3.854054510593414E-001,-7.681375369429588E-003,4.188180342316628E-002,-8.841962218284607E-001,-3.854054510593414E-001,
9.075333333333334E+008,-7.994632236659527E-003,3.445323556661606E-002,-8.989173769950867E-001,-3.614703118801117E-001,-7.994632236659527E-003,3.445323556661606E-002,-8.989173769950867E-001,-3.614703118801117E-001,
9.159000000000000E+008,-1.048935111612082E-002,2.873631380498409E-002,-9.200728535652161E-001,-3.365675210952759E-001,-1.048935111612082E-002,2.873631380498409E-002,-9.200728535652161E-001,-3.365675210952759E-001,
9.242666666666668E+008,-1.720754615962505E-002,2.883362025022507E-002,-9.116859436035156E-001,-3.144839406013489E-001,-1.720754615962505E-002,2.883362025022507E-002,-9.116859436035156E-001,-3.144839406013489E-001,
9.326333333333334E+008,-2.217750623822212E-002,3.076263144612312E-002,-9.274386167526245E-001,-3.016967475414276E-001,-2.217750623822212E-002,3.076263144612312E-002,-9.274386167526245E-001,-3.016967475414276E-001,
9.410000000000000E+008,-2.634918130934238E-002,3.476524725556374E-002,-9.373947381973267E-001,-2.667163908481598E-001,-2.634918130934238E-002,3.476524725556374E-002,-9.373947381973267E-001,-2.667163908481598E-001,
9.493666666666668E+008,-2.818530425429344E-002,4.376444965600967E-002,-9.417089819908142E-001,-2.361983209848404E-001,-2.818530425429344E-002,4.376444965600967E-002,-9.417089819908142E-001,-2.361983209848404E-001,
9.577333333333334E+008,-2.511065639555454E-002,5.323566868901253E-002,-9.480423331260681E-001,-2.227836996316910E-001,-2.511065639555454E-002,5.323566868901253E-002,-9.480423331260681E-001,-2.227836996316910E-001,
9.661000000000000E+008,-1.684935577213764E-002,5.983498319983482E-002,-9.494120478630066E-001,-1.818688660860062E-001,-1.684935577213764E-002,5.983498319983482E-002,-9.494120478630066E-001,-1.818688660860062E-001,
9.744666666666668E+008,-6.885344162583351E-003,6.070733815431595E-002,-9.466268420219421E-001,-1.720362603664398E-001,-6.885344162583351E-003,6.070733815431595E-002,-9.466268420219421E-001,-1.720362603664398E-001,
9.828333333333334E+008,1.578549155965447E-003,6.212939321994782E-002,-9.629094004631043E-001,-1.532962918281555E-001,1.578549155965447E-003,6.212939321994782E-002,-9.629094004631043E-001,-1.532962918281555E-001,
9.912000000000000E+008,1.155591011047363E-002,5.609070882201195E-002,-9.610095024108887E-001,-1.314973533153534E-001,1.155591011047363E-002,5.609070882201195E-002,-9.610095024108887E-001,-1.314973533153534E-001,
9.995666666666668E+008,1.471631787717342E-002,4.867643862962723E-002,-9.733959436416626E-001,-9.575471282005310E-002,1.471631787717342E-002,4.867643862962723E-002,-9.733959436416626E-001,-9.575471282005310E-002,
1.007933333333333E+009,1.776821538805962E-002,3.953815996646881E-002,-9.873926043510437E-001,-7.911611348390579E-002,1.776821538805962E-002,3.953815996646881E-002,-9.873926043510437E-001,-7.911611348390579E-002,
1.016300000000000E+009,1.146983634680510E-002,3.371205180883408E-002,-9.747430682182312E-001,-5.304232984781265E-002,1.146983634680510E-002,3.371205180883408E-002,-9.747430682182312E-001,-5.304232984781265E-002,
1.024666666666667E+009,3.894184483215213E-003,2.964129112660885E-002,-9.704402685165405E-001,-2.709974348545075E-002,3.894184483215213E-003,2.964129112660885E-002,-9.704402685165405E-001,-2.709974348545075E-002,
1.033033333333333E+009,-1.166078262031078E-003,3.409404307603836E-002,-9.776479601860046E-001,-1.220270060002804E-003,-1.166078262031078E-003,3.409404307603836E-002,-9.776479601860046E-001,-1.220270060002804E-003,
1.041400000000000E+009,-7.836536504328251E-003,3.891481086611748E-002,-9.772123694419861E-001,1.930927298963070E-002,-7.836536504328251E-003,3.891481086611748E-002,-9.772123694419861E-001,1.930927298963070E-002,
1.049766666666667E+009,-5.067123100161552E-003,4.859077557921410E-002,-9.635555148124695E-001,5.508118867874146E-002,-5.067123100161552E-003,4.859077557921410E-002,-9.635555148124695E-001,5.508118867874146E-002,
1.058133333333333E+009,-1.400522771291435E-003,5.750629678368568E-002,-9.652476906776428E-001,7.651877403259277E-002,-1.400522771291435E-003,5.750629678368568E-002,-9.652476906776428E-001,7.651877403259277E-002,
1.066500000000000E+009,9.356345981359482E-003,6.211211904883385E-002,-9.798959493637085E-001,1.092862114310265E-001,9.356345981359482E-003,6.211211904883385E-002,-9.798959493637085E-001,1.092862114310265E-001,
1.074866666666667E+009,2.211895212531090E-002,6.155202910304070E-002,-9.735463261604309E-001,1.291072666645050E-001,2.211895212531090E-002,6.155202910304070E-002,-9.735463261604309E-001,1.291072666645050E-001,
1.083233333333334E+009,3.033586964011192E-002,5.408045649528503E-002,-9.581101536750794E-001,1.500756740570068E-001,3.033586964011192E-002,5.408045649528503E-002,-9.581101536750794E-001,1.500756740570068E-001,
1.091600000000000E+009,3.648567199707031E-002,4.419335350394249E-002,-9.415813684463501E-001,1.697000414133072E-001,3.648567199707031E-002,4.419335350394249E-002,-9.415813684463501E-001,1.697000414133072E-001,
1.099966666666667E+009,3.572655096650124E-002,3.132290393114090E-002,-9.381103515625000E-001,2.071910500526428E-001,3.572655096650124E-002,3.132290393114090E-002,-9.381103515625000E-001,2.071910500526428E-001,
1.108333333333334E+009,2.761352434754372E-002,2.347398735582829E-002,-9.371959567070007E-001,2.154991924762726E-001,2.761352434754372E-002,2.347398735582829E-002,-9.371959567070007E-001,2.154991924762726E-001,
1.116700000000000E+009,1.735785417258740E-002,2.001536265015602E-002,-9.306672811508179E-001,2.489714473485947E-001,1.735785417258740E-002,2.001536265015602E-002,-9.306672811508179E-001,2.489714473485947E-001,
1.125066666666667E+009,6.210321094840765E-003,2.431671135127544E-002,-9.317762255668640E-001,2.658482491970062E-001,6.210321094840765E-003,2.431671135127544E-002,-9.317762255668640E-001,2.658482491970062E-001,
1.133433333333334E+009,-1.633285777643323E-003,3.372130915522575E-002,-9.291592240333557E-001,3.096685707569122E-001,-1.633285777643323E-003,3.372130915522575E-002,-9.291592240333557E-001,3.096685707569122E-001,
1.141800000000000E+009,-3.253770759329200E-003,4.679877310991287E-002,-9.067028164863586E-001,3.244262635707855E-001,-3.253770759329200E-003,4.679877310991287E-002,-9.067028164863586E-001,3.244262635707855E-001,
1.150166666666667E+009,5.467110313475132E-003,6.095604971051216E-002,-8.969685435295105E-001,3.248726427555084E-001,5.467110313475132E-003,6.095604971051216E-002,-8.969685435295105E-001,3.248726427555084E-001,
1.158533333333334E+009,2.043249271810055E-002,6.803594529628754E-002,-8.906568288803101E-001,3.636435270309448E-001,2.043249271810055E-002,6.803594529628754E-002,-8.906568288803101E-001,3.636435270309448E-001,
1.166900000000000E+009,3.878802806138992E-002,6.861219555139542E-002,-8.750833272933960E-001,3.827880620956421E-001,3.878802806138992E-002,6.861219555139542E-002,-8.750833272933960E-001,3.827880620956421E-001,
1.175266666666667E+009,5.417791754007340E-002,5.867205932736397E-002,-8.699271082878113E-001,4.120182991027832E-001,5.417791754007340E-002,5.867205932736397E-002,-8.699271082878113E-001,4.120182991027832E-001,
1.183633333333334E+009,6.589974462985992E-002,4.506091773509979E-002,-8.694113492965698E-001,4.240171909332275E-001,6.589974462985992E-002,4.506091773509979E-002,-8.694113492965698E-001,4.240171909332275E-001,
1.192000000000000E+009,6.597567349672318E-002,2.725930511951447E-002,-8.569540977478027E-001,4.468133151531220E-001,6.597567349672318E-002,2.725930511951447E-002,-8.569540977478027E-001,4.468133151531220E-001,
1.200366666666667E+009,5.674315989017487E-002,1.123191416263580E-002,-8.446051478385925E-001,4.684549272060394E-001,5.674315989017487E-002,1.123191416263580E-002,-8.446051478385925E-001,4.684549272060394E-001,
1.208733333333334E+009,4.204381629824638E-002,2.685261424630880E-003,-8.376568555831909E-001,5.104554891586304E-001,4.204381629824638E-002,2.685261424630880E-003,-8.376568555831909E-001,5.104554891586304E-001,
1.217100000000000E+009,2.637696824967861E-002,3.969965502619743E-003,-8.337868452072144E-001,5.201494693756104E-001,2.637696824967861E-002,3.969965502619743E-003,-8.337868452072144E-001,5.201494693756104E-001,
1.225466666666667E+009,1.399967353790999E-002,1.429625321179628E-002,-8.015456795692444E-001,5.448852181434631E-001,1.399967353790999E-002,1.429625321179628E-002,-8.015456795692444E-001,5.448852181434631E-001,
1.233833333333334E+009,9.367045946419239E-003,3.055130690336227E-002,-7.966517210006714E-001,5.556373000144959E-001,9.367045946419239E-003,3.055130690336227E-002,-7.966517210006714E-001,5.556373000144959E-001,
1.242200000000000E+009,1.729947142302990E-002,4.474124684929848E-002,-7.716351151466370E-001,5.886167883872986E-001,1.729947142302990E-002,4.474124684929848E-002,-7.716351151466370E-001,5.886167883872986E-001,
1.250566666666667E+009,2.980561926960945E-002,5.487183853983879E-002,-7.508442401885986E-001,5.936560034751892E-001,2.980561926960945E-002,5.487183853983879E-002,-7.508442401885986E-001,5.936560034751892E-001,
1.258933333333334E+009,5.004509165883064E-002,5.539457499980927E-002,-7.459332942962647E-001,6.152247786521912E-001,5.004509165883064E-002,5.539457499980927E-002,-7.459332942962647E-001,6.152247786521912E-001,
1.267300000000000E+009,6.902375072240830E-002,4.541360959410667E-002,-7.279245257377625E-001,6.293772459030151E-001,6.902375072240830E-002,4.541360959410667E-002,-7.279245257377625E-001,6.293772459030151E-001,
1.275666666666667E+009,7.822246104478836E-002,2.827983163297176E-002,-7.156813740730286E-001,6.381911039352417E-001,7.822246104478836E-002,2.827983163297176E-002,-7.156813740730286E-001,6.381911039352417E-001,
1.284033333333334E+009,8.061493933200836E-002,8.200997486710548E-003,-7.008967399597168E-001,6.788933873176575E-001,8.061493933200836E-002,8.200997486710548E-003,-7.008967399597168E-001,6.788933873176575E-001,
1.292400000000000E+009,7.058683037757874E-002,-9.935172274708748E-003,-6.884741187095642E-001,6.831203699111939E-001,7.058683037757874E-002,-9.935172274708748E-003,-6.884741187095642E-001,6.831203699111939E-001,
1.300766666666667E+009,5.156565457582474E-002,-1.824462413787842E-002,-6.666936874389648E-001,7.077473998069763E-001,5.156565457582474E-002,-1.824462413787842E-002,-6.666936874389648E-001,7.077473998069763E-001,
1.309133333333334E+009,3.140148147940636E-002,-1.679301448166370E-002,-6.425071358680725E-001,7.223645448684692E-001,3.140148147940636E-002,-1.679301448166370E-002,-6.425071358680725E-001,7.223645448684692E-001,
1.317500000000000E+009,1.690026745200157E-002,-5.333067383617163E-003,-6.296872496604919E-001,7.524687051773071E-001,1.690026745200157E-002,-5.333067383617163E-003,-6.296872496604919E-001,7.524687051773071E-001,
1.325866666666667E+009,1.197891402989626E-002,1.122984383255243E-002,-6.102060079574585E-001,7.675507664680481E-001,1.197891402989626E-002,1.122984383255243E-002,-6.102060079574585E-001,7.675507664680481E-001,
1.334233333333334E+009,1.956297829747200E-002,2.865451388061047E-002,-5.920120477676392E-001,7.728282809257507E-001,1.956297829747200E-002,2.865451388061047E-002,-5.920120477676392E-001,7.728282809257507E-001,
1.342600000000000E+009,3.458109870553017E-002,3.780501708388329E-002,-5.749440789222717E-001,7.889780402183533E-001,3.458109870553017E-002,3.780501708388329E-002,-5.749440789222717E-001,7.889780402183533E-001,
1.350966666666667E+009,5.441558361053467E-002,3.551055118441582E-002,-5.501814484596252E-001,8.011213541030884E-001,5.441558361053467E-002,3.551055118441582E-002,-5.501814484596252E-001,8.011213541030884E-001,
1.359333333333334E+009,6.939029693603516E-002,2.266792021691799E-002,-5.376343727111816E-001,8.017323613166809E-001,6.939029693603516E-002,2.266792021691799E-002,-5.376343727111816E-001,8.017323613166809E-001,
1.367700000000000E+009,7.582319527864456E-002,3.752883290871978E-003,-5.043054223060608E-001,8.200225234031677E-001,7.582319527864456E-002,3.752883290871978E-003,-5.043054223060608E-001,8.200225234031677E-001,
1.376066666666667E+009,7.275579124689102E-002,-1.760283857584000E-002,-4.899203181266785E-001,8.297831416130066E-001,7.275579124689102E-002,-1.760283857584000E-002,-4.899203181266785E-001,8.297831416130066E-001,
1.384433333333334E+009,5.641276389360428E-002,-3.255368769168854E-002,-4.745890200138092E-001,8.607926368713379E-001,5.641276389360428E-002,-3.255368769168854E-002,-4.745890200138092E-001,8.607926368713379E-001,
1.392800000000000E+009,3.618139028549194E-002,-3.471334651112557E-002,-4.533329904079437E-001,8.698104023933411E-001,3.618139028549194E-002,-3.471334651112557E-002,-4.533329904079437E-001,8.698104023933411E-001,
1.401166666666667E+009,1.591180451214314E-002,-2.747961878776550E-002,-4.265890419483185E-001,8.772428631782532E-001,1.591180451214314E-002,-2.747961878776550E-002,-4.265890419483185E-001,8.772428631782532E-001,
1.409533333333334E+009,2.402475802227855E-003,-1.002246234565973E-002,-3.976822197437286E-001,8.913086056709290E-001,2.402475802227855E-003,-1.002246234565973E-002,-3.976822197437286E-001,8.913086056709290E-001,
1.417900000000000E+009,2.548934193328023E-003,1.291742362082005E-002,-3.784421086311340E-001,8.873266577720642E-001,2.548934193328023E-003,1.291742362082005E-002,-3.784421086311340E-001,8.873266577720642E-001,
1.426266666666667E+009,1.260734442621470E-002,2.964584156870842E-002,-3.423987925052643E-001,9.131188392639160E-001,1.260734442621470E-002,2.964584156870842E-002,-3.423987925052643E-001,9.131188392639160E-001,
1.434633333333334E+009,3.248308226466179E-002,3.807621076703072E-002,-3.331041932106018E-001,9.070540070533752E-001,3.248308226466179E-002,3.807621076703072E-002,-3.331041932106018E-001,9.070540070533752E-001,
1.443000000000000E+009,5.263254418969154E-002,3.570277616381645E-002,-3.097360134124756E-001,9.148222804069519E-001,5.263254418969154E-002,3.570277616381645E-002,-3.097360134124756E-001,9.148222804069519E-001,
1.451366666666667E+009,6.886623799800873E-002,2.070709131658077E-002,-2.844572067260742E-001,9.153750538825989E-001,6.886623799800873E-002,2.070709131658077E-002,-2.844572067260742E-001,9.153750538825989E-001,
1.459733333333334E+009,7.624883949756622E-002,9.990761755034328E-004,-2.596792578697205E-001,9.425091743469238E-001,7.624883949756622E-002,9.990761755034328E-004,-2.596792578697205E-001,9.425091743469238E-001,
