% Version 1.00
%
%freq[Hz],re:Trc1_S11,im:Trc1_S11,re:Trc2_S21,im:Trc2_S21,re:Trc3_S11,im:Trc3_S11,re:Trc4_S21,im:Trc4_S21,
6.900000000000000E+008,-5.770109221339226E-002,4.483838751912117E-002,-5.143247246742249E-001,-8.428792953491211E-001,-5.770109221339226E-002,4.483838751912117E-002,-5.143247246742249E-001,-8.428792953491211E-001,
6.983666666666666E+008,-4.962579160928726E-002,4.536666721105576E-002,-5.390380024909973E-001,-8.339397311210632E-001,-4.962579160928726E-002,4.536666721105576E-002,-5.390380024909973E-001,-8.339397311210632E-001,
7.067333333333334E+008,-4.432111606001854E-002,4.110218212008476E-002,-5.614563822746277E-001,-8.069581985473633E-001,-4.432111606001854E-002,4.110218212008476E-002,-5.614563822746277E-001,-8.069581985473633E-001,
7.151000000000000E+008,-4.390018805861473E-002,3.395655006170273E-002,-5.953375101089478E-001,-8.056353926658630E-001,-4.390018805861473E-002,3.395655006170273E-002,-5.953375101089478E-001,-8.056353926658630E-001,
7.234666666666666E+008,-4.621956124901772E-002,2.939226292073727E-002,-6.091147661209106E-001,-7.894755005836487E-001,-4.621956124901772E-002,2.939226292073727E-002,-6.091147661209106E-001,-7.894755005836487E-001,
7.318333333333334E+008,-5.355573445558548E-002,2.771199867129326E-002,-6.298316717147827E-001,-7.724241614341736E-001,-5.355573445558548E-002,2.771199867129326E-002,-6.298316717147827E-001,-7.724241614341736E-001,
7.402000000000000E+008,-5.979344248771668E-002,3.056484460830689E-002,-6.377934217453003E-001,-7.460742592811585E-001,-5.979344248771668E-002,3.056484460830689E-002,-6.377934217453003E-001,-7.460742592811585E-001,
7.485666666666666E+008,-6.473133713006973E-002,3.802202269434929E-002,-6.686058044433594E-001,-7.314661741256714E-001,-6.473133713006973E-002,3.802202269434929E-002,-6.686058044433594E-001,-7.314661741256714E-001,
7.569333333333334E+008,-6.799294054508209E-002,4.850250110030174E-002,-6.871623396873474E-001,-7.158476114273071E-001,-6.799294054508209E-002,4.850250110030174E-002,-6.871623396873474E-001,-7.158476114273071E-001,
7.653000000000000E+008,-6.171861663460732E-002,5.740976706147194E-002,-6.937189698219299E-001,-6.975941061973572E-001,-6.171861663460732E-002,5.740976706147194E-002,-6.937189698219299E-001,-6.975941061973572E-001,
7.736666666666666E+008,-5.522996187210083E-002,6.401506811380386E-002,-7.055700421333313E-001,-6.959912776947022E-001,-5.522996187210083E-002,6.401506811380386E-002,-7.055700421333313E-001,-6.959912776947022E-001,
7.820333333333334E+008,-4.643046110868454E-002,6.800179183483124E-002,-7.394512891769409E-001,-6.650088429450989E-001,-4.643046110868454E-002,6.800179183483124E-002,-7.394512891769409E-001,-6.650088429450989E-001,
7.904000000000000E+008,-3.647559136152268E-002,6.673896312713623E-002,-7.472444772720337E-001,-6.471835970878601E-001,-3.647559136152268E-002,6.673896312713623E-002,-7.472444772720337E-001,-6.471835970878601E-001,
7.987666666666666E+008,-3.180183842778206E-002,6.190460547804833E-002,-7.525392770767212E-001,-6.293266415596008E-001,-3.180183842778206E-002,6.190460547804833E-002,-7.525392770767212E-001,-6.293266415596008E-001,
8.071333333333334E+008,-3.042578697204590E-002,5.611374601721764E-002,-7.789046764373779E-001,-5.978997945785523E-001,-3.042578697204590E-002,5.611374601721764E-002,-7.789046764373779E-001,-5.978997945785523E-001,
8.155000000000000E+008,-3.305446729063988E-002,4.947558045387268E-002,-8.062800168991089E-001,-5.866300463676453E-001,-3.305446729063988E-002,4.947558045387268E-002,-8.062800168991089E-001,-5.866300463676453E-001,
8.238666666666666E+008,-3.978808224201202E-002,4.799230769276619E-002,-8.114314079284668E-001,-5.627797842025757E-001,-3.978808224201202E-002,4.799230769276619E-002,-8.114314079284668E-001,-5.627797842025757E-001,
8.322333333333334E+008,-4.480984061956406E-002,5.015194043517113E-002,-8.213857412338257E-001,-5.446929335594177E-001,-4.480984061956406E-002,5.015194043517113E-002,-8.213857412338257E-001,-5.446929335594177E-001,
8.406000000000000E+008,-4.922378808259964E-002,5.390196666121483E-002,-8.323203325271606E-001,-5.219257473945618E-001,-4.922378808259964E-002,5.390196666121483E-002,-8.323203325271606E-001,-5.219257473945618E-001,
8.489666666666668E+008,-4.993630200624466E-002,6.587459892034531E-002,-8.447734713554382E-001,-4.924819469451904E-001,-4.993630200624466E-002,6.587459892034531E-002,-8.447734713554382E-001,-4.924819469451904E-001,
8.573333333333334E+008,-4.736051335930824E-002,7.365497946739197E-002,-8.466389775276184E-001,-4.619225859642029E-001,-4.736051335930824E-002,7.365497946739197E-002,-8.466389775276184E-001,-4.619225859642029E-001,
8.657000000000000E+008,-4.183377698063850E-002,8.110892027616501E-002,-8.716560602188110E-001,-4.641450345516205E-001,-4.183377698063850E-002,8.110892027616501E-002,-8.716560602188110E-001,-4.641450345516205E-001,
8.740666666666668E+008,-3.210045024752617E-002,8.609427511692047E-002,-8.797746300697327E-001,-4.404271543025971E-001,-3.210045024752617E-002,8.609427511692047E-002,-8.797746300697327E-001,-4.404271543025971E-001,
8.824333333333334E+008,-2.401738427579403E-002,8.760312944650650E-002,-8.972227573394775E-001,-4.155189990997315E-001,-2.401738427579403E-002,8.760312944650650E-002,-8.972227573394775E-001,-4.155189990997315E-001,
8.908000000000000E+008,-1.560858450829983E-002,8.434926718473434E-002,-9.116830825805664E-001,-3.980469107627869E-001,-1.560858450829983E-002,8.434926718473434E-002,-9.116830825805664E-001,-3.980469107627869E-001,
8.991666666666668E+008,-1.008232776075602E-002,7.828559726476669E-002,-9.097059369087219E-001,-3.697619438171387E-001,-1.008232776075602E-002,7.828559726476669E-002,-9.097059369087219E-001,-3.697619438171387E-001,
9.075333333333334E+008,-9.452399797737598E-003,7.146549224853516E-002,-9.237045645713806E-001,-3.440077006816864E-001,-9.452399797737598E-003,7.146549224853516E-002,-9.237045645713806E-001,-3.440077006816864E-001,
9.159000000000000E+008,-1.215672399848700E-002,6.611669063568115E-002,-9.449613690376282E-001,-3.188482522964478E-001,-1.215672399848700E-002,6.611669063568115E-002,-9.449613690376282E-001,-3.188482522964478E-001,
9.242666666666668E+008,-1.841461285948753E-002,6.685773283243179E-002,-9.375774264335632E-001,-2.975681424140930E-001,-1.841461285948753E-002,6.685773283243179E-002,-9.375774264335632E-001,-2.975681424140930E-001,
9.326333333333334E+008,-2.298143506050110E-002,6.973603367805481E-002,-9.526965618133545E-001,-2.816867828369141E-001,-2.298143506050110E-002,6.973603367805481E-002,-9.526965618133545E-001,-2.816867828369141E-001,
9.410000000000000E+008,-2.609200403094292E-002,7.420298457145691E-002,-9.615923166275024E-001,-2.452422678470612E-001,-2.609200403094292E-002,7.420298457145691E-002,-9.615923166275024E-001,-2.452422678470612E-001,
9.493666666666668E+008,-2.683555521070957E-002,8.380196243524551E-002,-9.652650952339172E-001,-2.154439091682434E-001,-2.683555521070957E-002,8.380196243524551E-002,-9.652650952339172E-001,-2.154439091682434E-001,
9.577333333333334E+008,-2.227521874010563E-002,9.360755234956741E-002,-9.704735875129700E-001,-2.015170156955719E-001,-2.227521874010563E-002,9.360755234956741E-002,-9.704735875129700E-001,-2.015170156955719E-001,
9.661000000000000E+008,-1.298070326447487E-002,1.002277880907059E-001,-9.713349938392639E-001,-1.588706672191620E-001,-1.298070326447487E-002,1.002277880907059E-001,-9.713349938392639E-001,-1.588706672191620E-001,
9.744666666666668E+008,-2.054358366876841E-003,9.995085000991821E-002,-9.674863815307617E-001,-1.495195925235748E-001,-2.054358366876841E-003,9.995085000991821E-002,-9.674863815307617E-001,-1.495195925235748E-001,
9.828333333333334E+008,7.614115253090859E-003,1.009644940495491E-001,-9.839953184127808E-001,-1.293189972639084E-001,7.614115253090859E-003,1.009644940495491E-001,-9.839953184127808E-001,-1.293189972639084E-001,
9.912000000000000E+008,1.826296932995319E-002,9.457666426897049E-002,-9.809329509735107E-001,-1.073487997055054E-001,1.826296932995319E-002,9.457666426897049E-002,-9.809329509735107E-001,-1.073487997055054E-001,
9.995666666666668E+008,2.202527970075607E-002,8.697374165058136E-002,-9.928414225578308E-001,-6.862515211105347E-002,2.202527970075607E-002,8.697374165058136E-002,-9.928414225578308E-001,-6.862515211105347E-002,
1.007933333333333E+009,2.604394033551216E-002,7.782204449176788E-002,-1.007161140441895E+000,-5.195618793368340E-002,2.604394033551216E-002,7.782204449176788E-002,-1.007161140441895E+000,-5.195618793368340E-002,
1.016300000000000E+009,2.028716541826725E-002,7.195858657360077E-002,-9.948954582214356E-001,-2.730864286422730E-002,2.028716541826725E-002,7.195858657360077E-002,-9.948954582214356E-001,-2.730864286422730E-002,
1.024666666666667E+009,1.286400295794010E-002,6.878447532653809E-002,-9.902272224426270E-001,-3.393290971871465E-004,1.286400295794010E-002,6.878447532653809E-002,-9.902272224426270E-001,-3.393290971871465E-004,
1.033033333333333E+009,8.430790156126022E-003,7.371231913566589E-002,-9.969280958175659E-001,2.723707631230354E-002,8.430790156126022E-003,7.371231913566589E-002,-9.969280958175659E-001,2.723707631230354E-002,
1.041400000000000E+009,2.530349418520927E-003,7.881681621074677E-002,-9.960944056510925E-001,4.592304304242134E-002,2.530349418520927E-003,7.881681621074677E-002,-9.960944056510925E-001,4.592304304242134E-002,
1.049766666666667E+009,6.983935832977295E-003,8.818640559911728E-002,-9.800171852111816E-001,8.341924846172333E-002,6.983935832977295E-003,8.818640559911728E-002,-9.800171852111816E-001,8.341924846172333E-002,
1.058133333333333E+009,1.220832765102387E-002,9.715192019939423E-002,-9.815459847450256E-001,1.056309267878532E-001,1.220832765102387E-002,9.715192019939423E-002,-9.815459847450256E-001,1.056309267878532E-001,
1.066500000000000E+009,2.416991628706455E-002,1.010373234748840E-001,-9.944080114364624E-001,1.401632279157639E-001,2.416991628706455E-002,1.010373234748840E-001,-9.944080114364624E-001,1.401632279157639E-001,
1.074866666666667E+009,3.836499154567719E-002,9.902831912040710E-002,-9.876591563224793E-001,1.617853045463562E-001,3.836499154567719E-002,9.902831912040710E-002,-9.876591563224793E-001,1.617853045463562E-001,
1.083233333333334E+009,4.706187546253204E-002,9.079360216856003E-002,-9.720419049263001E-001,1.811236739158630E-001,4.706187546253204E-002,9.079360216856003E-002,-9.720419049263001E-001,1.811236739158630E-001,
1.091600000000000E+009,5.369176343083382E-002,7.976162433624268E-002,-9.530857801437378E-001,2.005551457405090E-001,5.369176343083382E-002,7.976162433624268E-002,-9.530857801437378E-001,2.005551457405090E-001,
1.099966666666667E+009,5.244538560509682E-002,6.640298664569855E-002,-9.493111371994019E-001,2.381348609924316E-001,5.244538560509682E-002,6.640298664569855E-002,-9.493111371994019E-001,2.381348609924316E-001,
1.108333333333334E+009,4.454560577869415E-002,5.914111062884331E-002,-9.483115673065186E-001,2.484739571809769E-001,4.454560577869415E-002,5.914111062884331E-002,-9.483115673065186E-001,2.484739571809769E-001,
1.116700000000000E+009,3.421613946557045E-002,5.647725239396095E-002,-9.421884417533875E-001,2.816180586814880E-001,3.421613946557045E-002,5.647725239396095E-002,-9.421884417533875E-001,2.816180586814880E-001,
1.125066666666667E+009,2.416541799902916E-002,6.162385269999504E-002,-9.408553242683411E-001,2.997184097766876E-001,2.416541799902916E-002,6.162385269999504E-002,-9.408553242683411E-001,2.997184097766876E-001,
1.133433333333334E+009,1.727949082851410E-002,7.175392657518387E-002,-9.377573132514954E-001,3.443979620933533E-001,1.727949082851410E-002,7.175392657518387E-002,-9.377573132514954E-001,3.443979620933533E-001,
1.141800000000000E+009,1.817535609006882E-002,8.499149978160858E-002,-9.121201634407044E-001,3.584152460098267E-001,1.817535609006882E-002,8.499149978160858E-002,-9.121201634407044E-001,3.584152460098267E-001,
1.150166666666667E+009,2.852543257176876E-002,9.850326925516129E-002,-9.037366509437561E-001,3.582458198070526E-001,2.852543257176876E-002,9.850326925516129E-002,-9.037366509437561E-001,3.582458198070526E-001,
1.158533333333334E+009,4.553287848830223E-002,1.050024852156639E-001,-8.940872550010681E-001,3.981201648712158E-001,4.553287848830223E-002,1.050024852156639E-001,-8.940872550010681E-001,3.981201648712158E-001,
1.166900000000000E+009,6.562817841768265E-002,1.038785800337791E-001,-8.784949183464050E-001,4.191573560237885E-001,6.562817841768265E-002,1.038785800337791E-001,-8.784949183464050E-001,4.191573560237885E-001,
1.175266666666667E+009,8.121986687183380E-002,9.186033159494400E-002,-8.715664744377136E-001,4.471086263656616E-001,8.121986687183380E-002,9.186033159494400E-002,-8.715664744377136E-001,4.471086263656616E-001,
1.183633333333334E+009,9.331421554088593E-002,7.629381865262985E-002,-8.696236610412598E-001,4.603618681430817E-001,9.331421554088593E-002,7.629381865262985E-002,-8.696236610412598E-001,4.603618681430817E-001,
1.192000000000000E+009,9.271636605262756E-002,5.748247355222702E-002,-8.567163944244385E-001,4.817065894603729E-001,9.271636605262756E-002,5.748247355222702E-002,-8.567163944244385E-001,4.817065894603729E-001,
1.200366666666667E+009,8.285262435674667E-002,4.125357791781426E-002,-8.440785408020020E-001,5.041010379791260E-001,8.285262435674667E-002,4.125357791781426E-002,-8.440785408020020E-001,5.041010379791260E-001,
1.208733333333334E+009,6.802988052368164E-002,3.319902718067169E-002,-8.380543589591980E-001,5.475376844406128E-001,6.802988052368164E-002,3.319902718067169E-002,-8.380543589591980E-001,5.475376844406128E-001,
1.217100000000000E+009,5.285720154643059E-002,3.496841713786125E-002,-8.311406970024109E-001,5.562307834625244E-001,5.285720154643059E-002,3.496841713786125E-002,-8.311406970024109E-001,5.562307834625244E-001,
1.225466666666667E+009,4.177579656243324E-002,4.661036282777786E-002,-7.977722287178040E-001,5.800815820693970E-001,4.177579656243324E-002,4.661036282777786E-002,-7.977722287178040E-001,5.800815820693970E-001,
1.233833333333334E+009,3.911613672971726E-002,6.327491253614426E-002,-7.920436859130859E-001,5.924327373504639E-001,3.911613672971726E-002,6.327491253614426E-002,-7.920436859130859E-001,5.924327373504639E-001,
1.242200000000000E+009,4.900362715125084E-002,7.671410590410233E-002,-7.648987174034119E-001,6.268917322158814E-001,4.900362715125084E-002,7.671410590410233E-002,-7.648987174034119E-001,6.268917322158814E-001,
1.250566666666667E+009,6.363955140113831E-002,8.544157445430756E-002,-7.436022758483887E-001,6.301912069320679E-001,6.363955140113831E-002,8.544157445430756E-002,-7.436022758483887E-001,6.301912069320679E-001,
1.258933333333334E+009,8.442617207765579E-002,8.438476175069809E-002,-7.361388802528381E-001,6.499306559562683E-001,8.442617207765579E-002,8.438476175069809E-002,-7.361388802528381E-001,6.499306559562683E-001,
1.267300000000000E+009,1.040043309330940E-001,7.222423702478409E-002,-7.172221541404724E-001,6.650009155273438E-001,1.040043309330940E-001,7.222423702478409E-002,-7.172221541404724E-001,6.650009155273438E-001,
1.275666666666667E+009,1.129254028201103E-001,5.344742164015770E-002,-7.047724127769470E-001,6.734358072280884E-001,1.129254028201103E-001,5.344742164015770E-002,-7.047724127769470E-001,6.734358072280884E-001,
1.284033333333334E+009,1.144322976469994E-001,3.183322772383690E-002,-6.887621879577637E-001,7.149919271469116E-001,1.144322976469994E-001,3.183322772383690E-002,-6.887621879577637E-001,7.149919271469116E-001,
1.292400000000000E+009,1.037695631384850E-001,1.370863988995552E-002,-6.783046126365662E-001,7.184553146362305E-001,1.037695631384850E-001,1.370863988995552E-002,-6.783046126365662E-001,7.184553146362305E-001,
1.300766666666667E+009,8.452975749969482E-002,5.560120102018118E-003,-6.532223820686340E-001,7.421652078628540E-001,8.452975749969482E-002,5.560120102018118E-003,-6.532223820686340E-001,7.421652078628540E-001,
1.309133333333334E+009,6.489558517932892E-002,7.589147891849279E-003,-6.285707950592041E-001,7.564168572425842E-001,6.489558517932892E-002,7.589147891849279E-003,-6.285707950592041E-001,7.564168572425842E-001,
1.317500000000000E+009,5.143921077251434E-002,2.010050043463707E-002,-6.134029030799866E-001,7.884595394134522E-001,5.143921077251434E-002,2.010050043463707E-002,-6.134029030799866E-001,7.884595394134522E-001,
1.325866666666667E+009,4.840360209345818E-002,3.691473603248596E-002,-5.914147496223450E-001,8.013064861297607E-001,4.840360209345818E-002,3.691473603248596E-002,-5.914147496223450E-001,8.013064861297607E-001,
1.334233333333334E+009,5.848231911659241E-002,5.370537936687470E-002,-5.738299489021301E-001,8.064335584640503E-001,5.848231911659241E-002,5.370537936687470E-002,-5.738299489021301E-001,8.064335584640503E-001,
1.342600000000000E+009,7.516492903232575E-002,6.103793531656265E-002,-5.555222034454346E-001,8.231987953186035E-001,7.516492903232575E-002,6.103793531656265E-002,-5.555222034454346E-001,8.231987953186035E-001,
1.350966666666667E+009,9.592989832162857E-002,5.621431022882462E-002,-5.264093875885010E-001,8.346940875053406E-001,9.592989832162857E-002,5.621431022882462E-002,-5.264093875885010E-001,8.346940875053406E-001,
1.359333333333334E+009,1.109858974814415E-001,4.130601137876511E-002,-5.161045193672180E-001,8.333532810211182E-001,1.109858974814415E-001,4.130601137876511E-002,-5.161045193672180E-001,8.333532810211182E-001,
1.367700000000000E+009,1.159757524728775E-001,2.049044333398342E-002,-4.818887114524841E-001,8.508869409561157E-001,1.159757524728775E-001,2.049044333398342E-002,-4.818887114524841E-001,8.508869409561157E-001,
1.376066666666667E+009,1.117673516273499E-001,-2.081249374896288E-003,-4.654147326946259E-001,8.594945669174194E-001,1.117673516273499E-001,-2.081249374896288E-003,-4.654147326946259E-001,8.594945669174194E-001,
1.384433333333334E+009,9.440639615058899E-002,-1.680563390254974E-002,-4.511751234531403E-001,8.914177417755127E-001,9.440639615058899E-002,-1.680563390254974E-002,-4.511751234531403E-001,8.914177417755127E-001,
1.392800000000000E+009,7.360123842954636E-002,-1.849604956805706E-002,-4.287187457084656E-001,8.975098729133606E-001,7.360123842954636E-002,-1.849604956805706E-002,-4.287187457084656E-001,8.975098729133606E-001,
1.401166666666667E+009,5.442463234066963E-002,-1.038414612412453E-002,-4.013637602329254E-001,9.071712493896484E-001,5.442463234066963E-002,-1.038414612412453E-002,-4.013637602329254E-001,9.071712493896484E-001,
1.409533333333334E+009,4.239232838153839E-002,6.771007087081671E-003,-3.708090782165527E-001,9.208079576492310E-001,4.239232838153839E-002,6.771007087081671E-003,-3.708090782165527E-001,9.208079576492310E-001,
1.417900000000000E+009,4.517645016312599E-002,2.975818328559399E-002,-3.520664870738983E-001,9.161782264709473E-001,4.517645016312599E-002,2.975818328559399E-002,-3.520664870738983E-001,9.161782264709473E-001,
1.426266666666667E+009,5.758683383464813E-002,4.536931216716766E-002,-3.120460212230682E-001,9.413130879402161E-001,5.758683383464813E-002,4.536931216716766E-002,-3.120460212230682E-001,9.413130879402161E-001,
1.434633333333334E+009,7.911901921033859E-002,5.154381692409515E-002,-3.025324344635010E-001,9.347441792488098E-001,7.911901921033859E-002,5.154381692409515E-002,-3.025324344635010E-001,9.347441792488098E-001,
1.443000000000000E+009,9.968969225883484E-002,4.658645018935204E-002,-2.775586247444153E-001,9.413399696350098E-001,9.968969225883484E-002,4.658645018935204E-002,-2.775586247444153E-001,9.413399696350098E-001,
1.451366666666667E+009,1.152620017528534E-001,2.908690832555294E-002,-2.543311119079590E-001,9.401043057441711E-001,1.152620017528534E-001,2.908690832555294E-002,-2.543311119079590E-001,9.401043057441711E-001,
1.459733333333334E+009,1.208040043711662E-001,7.391746155917645E-003,-2.251099050045013E-001,9.684591293334961E-001,1.208040043711662E-001,7.391746155917645E-003,-2.251099050045013E-001,9.684591293334961E-001,
