% Version 1.00
%
%freq[Hz],re:Trc1_S11,im:Trc1_S11,re:Trc2_S21,im:Trc2_S21,re:Trc3_S11,im:Trc3_S11,re:Trc4_S21,im:Trc4_S21,
6.900000000000000E+008,-4.494693502783775E-002,3.568533807992935E-002,-4.987543821334839E-001,-8.520944118499756E-001,-4.494693502783775E-002,3.568533807992935E-002,-4.987543821334839E-001,-8.520944118499756E-001,
6.983666666666666E+008,-3.682836890220642E-002,3.624152392148972E-002,-5.260761380195618E-001,-8.435015082359314E-001,-3.682836890220642E-002,3.624152392148972E-002,-5.260761380195618E-001,-8.435015082359314E-001,
7.067333333333334E+008,-3.115734457969666E-002,3.143142908811569E-002,-5.464954972267151E-001,-8.171762824058533E-001,-3.115734457969666E-002,3.143142908811569E-002,-5.464954972267151E-001,-8.171762824058533E-001,
7.151000000000000E+008,-3.043268434703350E-002,2.363513410091400E-002,-5.819694399833679E-001,-8.163682818412781E-001,-3.043268434703350E-002,2.363513410091400E-002,-5.819694399833679E-001,-8.163682818412781E-001,
7.234666666666666E+008,-3.224672749638557E-002,1.863564364612103E-002,-5.954526662826538E-001,-7.993975281715393E-001,-3.224672749638557E-002,1.863564364612103E-002,-5.954526662826538E-001,-7.993975281715393E-001,
7.318333333333334E+008,-3.955330327153206E-002,1.622208580374718E-002,-6.128176450729370E-001,-7.811779379844666E-001,-3.955330327153206E-002,1.622208580374718E-002,-6.128176450729370E-001,-7.811779379844666E-001,
7.402000000000000E+008,-4.560982063412666E-002,1.823667623102665E-002,-6.232617497444153E-001,-7.558900117874146E-001,-4.560982063412666E-002,1.823667623102665E-002,-6.232617497444153E-001,-7.558900117874146E-001,
7.485666666666666E+008,-5.093167722225189E-002,2.531457692384720E-002,-6.543449163436890E-001,-7.442697286605835E-001,-5.093167722225189E-002,2.531457692384720E-002,-6.543449163436890E-001,-7.442697286605835E-001,
7.569333333333334E+008,-5.496934428811073E-002,3.508912399411202E-002,-6.720572113990784E-001,-7.309686541557312E-001,-5.496934428811073E-002,3.508912399411202E-002,-6.720572113990784E-001,-7.309686541557312E-001,
7.653000000000000E+008,-4.976618662476540E-002,4.358227550983429E-002,-6.807320117950440E-001,-7.132818102836609E-001,-4.976618662476540E-002,4.358227550983429E-002,-6.807320117950440E-001,-7.132818102836609E-001,
7.736666666666666E+008,-4.380278289318085E-002,5.011279881000519E-002,-6.930254101753235E-001,-7.077474594116211E-001,-4.380278289318085E-002,5.011279881000519E-002,-6.930254101753235E-001,-7.077474594116211E-001,
7.820333333333334E+008,-3.551768139004707E-002,5.416261777281761E-002,-7.268832921981812E-001,-6.804967522621155E-001,-3.551768139004707E-002,5.416261777281761E-002,-7.268832921981812E-001,-6.804967522621155E-001,
7.904000000000000E+008,-2.553984522819519E-002,5.274661257863045E-002,-7.363303899765015E-001,-6.611613631248474E-001,-2.553984522819519E-002,5.274661257863045E-002,-7.363303899765015E-001,-6.611613631248474E-001,
7.987666666666666E+008,-2.136893570423126E-002,4.730007797479630E-002,-7.426149845123291E-001,-6.455420255661011E-001,-2.136893570423126E-002,4.730007797479630E-002,-7.426149845123291E-001,-6.455420255661011E-001,
8.071333333333334E+008,-1.928974315524101E-002,4.091092571616173E-002,-7.681432962417603E-001,-6.147922277450562E-001,-1.928974315524101E-002,4.091092571616173E-002,-7.681432962417603E-001,-6.147922277450562E-001,
8.155000000000000E+008,-2.222883701324463E-002,3.360753133893013E-002,-7.935714721679688E-001,-6.036505103111267E-001,-2.222883701324463E-002,3.360753133893013E-002,-7.935714721679688E-001,-6.036505103111267E-001,
8.238666666666666E+008,-2.853569015860558E-002,3.161524236202240E-002,-8.006938695907593E-001,-5.801481604576111E-001,-2.853569015860558E-002,3.161524236202240E-002,-8.006938695907593E-001,-5.801481604576111E-001,
8.322333333333334E+008,-3.382825851440430E-002,3.281442448496819E-002,-8.109927177429199E-001,-5.615792274475098E-001,-3.382825851440430E-002,3.281442448496819E-002,-8.109927177429199E-001,-5.615792274475098E-001,
8.406000000000000E+008,-3.851107880473137E-002,3.599257767200470E-002,-8.215134739875794E-001,-5.399382710456848E-001,-3.851107880473137E-002,3.599257767200470E-002,-8.215134739875794E-001,-5.399382710456848E-001,
8.489666666666668E+008,-4.016817361116409E-002,4.710172489285469E-002,-8.346275687217712E-001,-5.103951096534729E-001,-4.016817361116409E-002,4.710172489285469E-002,-8.346275687217712E-001,-5.103951096534729E-001,
8.573333333333334E+008,-3.821944072842598E-002,5.495395511388779E-002,-8.371903300285339E-001,-4.800940454006195E-001,-3.821944072842598E-002,5.495395511388779E-002,-8.371903300285339E-001,-4.800940454006195E-001,
8.657000000000000E+008,-3.354647010564804E-002,6.263514608144760E-002,-8.642252087593079E-001,-4.837319254875183E-001,-3.354647010564804E-002,6.263514608144760E-002,-8.642252087593079E-001,-4.837319254875183E-001,
8.740666666666668E+008,-2.470595017075539E-002,6.792208552360535E-002,-8.698465824127197E-001,-4.609960615634918E-001,-2.470595017075539E-002,6.792208552360535E-002,-8.698465824127197E-001,-4.609960615634918E-001,
8.824333333333334E+008,-1.659112423658371E-002,6.913316249847412E-002,-8.896807432174683E-001,-4.361770451068878E-001,-1.659112423658371E-002,6.913316249847412E-002,-8.896807432174683E-001,-4.361770451068878E-001,
8.908000000000000E+008,-8.801109157502651E-003,6.572185456752777E-002,-9.036565423011780E-001,-4.174891114234924E-001,-8.801109157502651E-003,6.572185456752777E-002,-9.036565423011780E-001,-4.174891114234924E-001,
8.991666666666668E+008,-3.459485247731209E-003,5.952194705605507E-002,-9.016568660736084E-001,-3.905718326568604E-001,-3.459485247731209E-003,5.952194705605507E-002,-9.016568660736084E-001,-3.905718326568604E-001,
9.075333333333334E+008,-3.108446951955557E-003,5.189409479498863E-002,-9.179714322090149E-001,-3.660575151443481E-001,-3.108446951955557E-003,5.189409479498863E-002,-9.179714322090149E-001,-3.660575151443481E-001,
9.159000000000000E+008,-5.633415188640356E-003,4.572976008057594E-002,-9.377858638763428E-001,-3.407726287841797E-001,-5.633415188640356E-003,4.572976008057594E-002,-9.377858638763428E-001,-3.407726287841797E-001,
9.242666666666668E+008,-1.214816421270371E-002,4.566607624292374E-002,-9.304454922676086E-001,-3.176091313362122E-001,-1.214816421270371E-002,4.566607624292374E-002,-9.304454922676086E-001,-3.176091313362122E-001,
9.326333333333334E+008,-1.707963459193707E-002,4.755667969584465E-002,-9.470945596694946E-001,-3.056783974170685E-001,-1.707963459193707E-002,4.755667969584465E-002,-9.470945596694946E-001,-3.056783974170685E-001,
9.410000000000000E+008,-2.088914997875691E-002,5.176996439695358E-002,-9.550148844718933E-001,-2.686773240566254E-001,-2.088914997875691E-002,5.176996439695358E-002,-9.550148844718933E-001,-2.686773240566254E-001,
9.493666666666668E+008,-2.259735949337483E-002,6.104378774762154E-002,-9.610489606857300E-001,-2.378892451524735E-001,-2.259735949337483E-002,6.104378774762154E-002,-9.610489606857300E-001,-2.378892451524735E-001,
9.577333333333334E+008,-1.909332722425461E-002,7.104770094156265E-002,-9.669552445411682E-001,-2.253217250108719E-001,-1.909332722425461E-002,7.104770094156265E-002,-9.669552445411682E-001,-2.253217250108719E-001,
9.661000000000000E+008,-1.061542332172394E-002,7.800096273422241E-002,-9.687658548355103E-001,-1.839011013507843E-001,-1.061542332172394E-002,7.800096273422241E-002,-9.687658548355103E-001,-1.839011013507843E-001,
9.744666666666668E+008,-1.567672734381631E-004,7.850334048271179E-002,-9.664095044136047E-001,-1.744683086872101E-001,-1.567672734381631E-004,7.850334048271179E-002,-9.664095044136047E-001,-1.744683086872101E-001,
9.828333333333334E+008,8.830180391669273E-003,7.947935909032822E-002,-9.828156828880310E-001,-1.540700495243073E-001,8.830180391669273E-003,7.947935909032822E-002,-9.828156828880310E-001,-1.540700495243073E-001,
9.912000000000000E+008,1.906952448189259E-002,7.313988357782364E-002,-9.796325564384460E-001,-1.304397881031036E-001,1.906952448189259E-002,7.313988357782364E-002,-9.796325564384460E-001,-1.304397881031036E-001,
9.995666666666668E+008,2.280754968523979E-002,6.523466110229492E-002,-9.921545982360840E-001,-9.281028062105179E-002,2.280754968523979E-002,6.523466110229492E-002,-9.921545982360840E-001,-9.281028062105179E-002,
1.007933333333333E+009,2.615366876125336E-002,5.560667812824249E-002,-1.007507801055908E+000,-7.925952970981598E-002,2.615366876125336E-002,5.560667812824249E-002,-1.007507801055908E+000,-7.925952970981598E-002,
1.016300000000000E+009,2.024246007204056E-002,4.913835227489471E-002,-9.956455826759338E-001,-5.220165848731995E-002,2.024246007204056E-002,4.913835227489471E-002,-9.956455826759338E-001,-5.220165848731995E-002,
1.024666666666667E+009,1.256938185542822E-002,4.479269683361054E-002,-9.904232025146484E-001,-2.545089460909367E-002,1.256938185542822E-002,4.479269683361054E-002,-9.904232025146484E-001,-2.545089460909367E-002,
1.033033333333333E+009,7.615916430950165E-003,4.911196976900101E-002,-9.987512826919556E-001,2.281957677041646E-005,7.615916430950165E-003,4.911196976900101E-002,-9.987512826919556E-001,2.281957677041646E-005,
1.041400000000000E+009,1.210660440847278E-003,5.402486771345139E-002,-9.984849691390991E-001,2.186341397464275E-002,1.210660440847278E-003,5.402486771345139E-002,-9.984849691390991E-001,2.186341397464275E-002,
1.049766666666667E+009,4.447217565029860E-003,6.350569427013397E-002,-9.834783673286438E-001,5.798669904470444E-002,4.447217565029860E-003,6.350569427013397E-002,-9.834783673286438E-001,5.798669904470444E-002,
1.058133333333333E+009,8.812690153717995E-003,7.285266369581223E-002,-9.853135943412781E-001,8.060389012098312E-002,8.812690153717995E-003,7.285266369581223E-002,-9.853135943412781E-001,8.060389012098312E-002,
1.066500000000000E+009,1.980727352201939E-002,7.755041122436523E-002,-1.000865697860718E+000,1.132329255342484E-001,1.980727352201939E-002,7.755041122436523E-002,-1.000865697860718E+000,1.132329255342484E-001,
1.074866666666667E+009,3.326126560568810E-002,7.653788477182388E-002,-9.938198328018189E-001,1.342989504337311E-001,3.326126560568810E-002,7.653788477182388E-002,-9.938198328018189E-001,1.342989504337311E-001,
1.083233333333334E+009,4.168688133358955E-002,6.871523708105087E-002,-9.769139289855957E-001,1.560052931308746E-001,4.168688133358955E-002,6.871523708105087E-002,-9.769139289855957E-001,1.560052931308746E-001,
1.091600000000000E+009,4.800415784120560E-002,5.799394473433495E-002,-9.604145884513855E-001,1.764029860496521E-001,4.800415784120560E-002,5.799394473433495E-002,-9.604145884513855E-001,1.764029860496521E-001,
1.099966666666667E+009,4.711211472749710E-002,4.433002695441246E-002,-9.557502865791321E-001,2.148138731718063E-001,4.711211472749710E-002,4.433002695441246E-002,-9.557502865791321E-001,2.148138731718063E-001,
1.108333333333334E+009,3.878702968358994E-002,3.567922115325928E-002,-9.549614787101746E-001,2.238380014896393E-001,3.878702968358994E-002,3.567922115325928E-002,-9.549614787101746E-001,2.238380014896393E-001,
1.116700000000000E+009,2.811306156218052E-002,3.174330294132233E-002,-9.468523859977722E-001,2.578762769699097E-001,2.811306156218052E-002,3.174330294132233E-002,-9.468523859977722E-001,2.578762769699097E-001,
1.125066666666667E+009,1.682676188647747E-002,3.597923740744591E-002,-9.492293596267700E-001,2.732750475406647E-001,1.682676188647747E-002,3.597923740744591E-002,-9.492293596267700E-001,2.732750475406647E-001,
1.133433333333334E+009,8.890784345567226E-003,4.553597420454025E-002,-9.474420547485352E-001,3.181186318397522E-001,8.890784345567226E-003,4.553597420454025E-002,-9.474420547485352E-001,3.181186318397522E-001,
1.141800000000000E+009,7.931412197649479E-003,5.892138183116913E-002,-9.249240159988403E-001,3.313340246677399E-001,7.931412197649479E-003,5.892138183116913E-002,-9.249240159988403E-001,3.313340246677399E-001,
1.150166666666667E+009,1.706373132765293E-002,7.338695228099823E-002,-9.159631729125977E-001,3.331651389598846E-001,1.706373132765293E-002,7.338695228099823E-002,-9.159631729125977E-001,3.331651389598846E-001,
1.158533333333334E+009,3.335718065500259E-002,8.064446598291397E-002,-9.073872566223145E-001,3.734371662139893E-001,3.335718065500259E-002,8.064446598291397E-002,-9.073872566223145E-001,3.734371662139893E-001,
1.166900000000000E+009,5.263247713446617E-002,8.114951848983765E-002,-8.920903205871582E-001,3.944661617279053E-001,5.263247713446617E-002,8.114951848983765E-002,-8.920903205871582E-001,3.944661617279053E-001,
1.175266666666667E+009,6.859465688467026E-002,7.048041373491287E-002,-8.857284784317017E-001,4.236566722393036E-001,6.859465688467026E-002,7.048041373491287E-002,-8.857284784317017E-001,4.236566722393036E-001,
1.183633333333334E+009,8.059675246477127E-002,5.578546598553658E-002,-8.839679956436157E-001,4.370921850204468E-001,8.059675246477127E-002,5.578546598553658E-002,-8.839679956436157E-001,4.370921850204468E-001,
1.192000000000000E+009,8.024240285158157E-002,3.699576482176781E-002,-8.715457916259766E-001,4.585316181182861E-001,8.024240285158157E-002,3.699576482176781E-002,-8.715457916259766E-001,4.585316181182861E-001,
1.200366666666667E+009,7.042656838893890E-002,2.020296640694141E-002,-8.584972023963928E-001,4.806939661502838E-001,7.042656838893890E-002,2.020296640694141E-002,-8.584972023963928E-001,4.806939661502838E-001,
1.208733333333334E+009,5.501690879464150E-002,1.104509644210339E-002,-8.524103760719299E-001,5.216675996780396E-001,5.501690879464150E-002,1.104509644210339E-002,-8.524103760719299E-001,5.216675996780396E-001,
1.217100000000000E+009,3.863108530640602E-002,1.178279053419828E-002,-8.479713201522827E-001,5.302305221557617E-001,3.863108530640602E-002,1.178279053419828E-002,-8.479713201522827E-001,5.302305221557617E-001,
1.225466666666667E+009,2.615995518863201E-002,2.229830995202065E-002,-8.166611790657044E-001,5.567615032196045E-001,2.615995518863201E-002,2.229830995202065E-002,-8.166611790657044E-001,5.567615032196045E-001,
1.233833333333334E+009,2.155219949781895E-002,3.877836465835571E-002,-8.107329607009888E-001,5.691009163856506E-001,2.155219949781895E-002,3.877836465835571E-002,-8.107329607009888E-001,5.691009163856506E-001,
1.242200000000000E+009,3.004813566803932E-002,5.309745296835899E-002,-7.864565253257752E-001,6.010506749153137E-001,3.004813566803932E-002,5.309745296835899E-002,-7.864565253257752E-001,6.010506749153137E-001,
1.250566666666667E+009,4.351546987891197E-002,6.349466741085053E-002,-7.645093202590942E-001,6.075317859649658E-001,4.351546987891197E-002,6.349466741085053E-002,-7.645093202590942E-001,6.075317859649658E-001,
1.258933333333334E+009,6.430097669363022E-002,6.381059437990189E-002,-7.575394511222839E-001,6.305887699127197E-001,6.430097669363022E-002,6.381059437990189E-002,-7.575394511222839E-001,6.305887699127197E-001,
1.267300000000000E+009,8.430752903223038E-002,5.322828888893127E-002,-7.393323183059692E-001,6.447336673736572E-001,8.430752903223038E-002,5.322828888893127E-002,-7.393323183059692E-001,6.447336673736572E-001,
1.275666666666667E+009,9.373152256011963E-002,3.553319722414017E-002,-7.276485562324524E-001,6.526052951812744E-001,9.373152256011963E-002,3.553319722414017E-002,-7.276485562324524E-001,6.526052951812744E-001,
1.284033333333334E+009,9.566543996334076E-002,1.422084309160709E-002,-7.106673717498779E-001,6.953325867652893E-001,9.566543996334076E-002,1.422084309160709E-002,-7.106673717498779E-001,6.953325867652893E-001,
1.292400000000000E+009,8.520775288343430E-002,-4.541824106127024E-003,-6.976068019866943E-001,6.985158324241638E-001,8.520775288343430E-002,-4.541824106127024E-003,-6.976068019866943E-001,6.985158324241638E-001,
1.300766666666667E+009,6.535284221172333E-002,-1.325252093374729E-002,-6.764531731605530E-001,7.222970724105835E-001,6.535284221172333E-002,-1.325252093374729E-002,-6.764531731605530E-001,7.222970724105835E-001,
1.309133333333334E+009,4.440640285611153E-002,-1.223493833094835E-002,-6.520099043846130E-001,7.372230291366577E-001,4.440640285611153E-002,-1.223493833094835E-002,-6.520099043846130E-001,7.372230291366577E-001,
1.317500000000000E+009,2.961026504635811E-002,-3.998723695985973E-004,-6.396238803863525E-001,7.685699462890625E-001,2.961026504635811E-002,-3.998723695985973E-004,-6.396238803863525E-001,7.685699462890625E-001,
1.325866666666667E+009,2.448906376957893E-002,1.631462201476097E-002,-6.201708912849426E-001,7.836226224899292E-001,2.448906376957893E-002,1.631462201476097E-002,-6.201708912849426E-001,7.836226224899292E-001,
1.334233333333334E+009,3.263841569423676E-002,3.359975293278694E-002,-6.010465621948242E-001,7.888140082359314E-001,3.263841569423676E-002,3.359975293278694E-002,-6.010465621948242E-001,7.888140082359314E-001,
1.342600000000000E+009,4.839150607585907E-002,4.263341054320335E-002,-5.843183994293213E-001,8.053060770034790E-001,4.839150607585907E-002,4.263341054320335E-002,-5.843183994293213E-001,8.053060770034790E-001,
1.350966666666667E+009,6.905372440814972E-002,3.987062349915505E-002,-5.572922825813294E-001,8.179517388343811E-001,6.905372440814972E-002,3.987062349915505E-002,-5.572922825813294E-001,8.179517388343811E-001,
1.359333333333334E+009,8.464372158050537E-002,2.635966055095196E-002,-5.442212820053101E-001,8.187016248703003E-001,8.464372158050537E-002,2.635966055095196E-002,-5.442212820053101E-001,8.187016248703003E-001,
1.367700000000000E+009,9.119076281785965E-002,6.548674311488867E-003,-5.104686617851257E-001,8.369086980819702E-001,9.119076281785965E-002,6.548674311488867E-003,-5.104686617851257E-001,8.369086980819702E-001,
1.376066666666667E+009,8.755184710025787E-002,-1.580484397709370E-002,-4.947235882282257E-001,8.464557528495789E-001,8.755184710025787E-002,-1.580484397709370E-002,-4.947235882282257E-001,8.464557528495789E-001,
1.384433333333334E+009,7.029573619365692E-002,-3.100663982331753E-002,-4.798646867275238E-001,8.765441775321960E-001,7.029573619365692E-002,-3.100663982331753E-002,-4.798646867275238E-001,8.765441775321960E-001,
1.392800000000000E+009,4.923533275723457E-002,-3.345029428601265E-002,-4.590078592300415E-001,8.855637311935425E-001,4.923533275723457E-002,-3.345029428601265E-002,-4.590078592300415E-001,8.855637311935425E-001,
1.401166666666667E+009,2.797961793839932E-002,-2.614268660545349E-002,-4.325467944145203E-001,8.927609920501709E-001,2.797961793839932E-002,-2.614268660545349E-002,-4.325467944145203E-001,8.927609920501709E-001,
1.409533333333334E+009,1.364146079868078E-002,-8.560538291931152E-003,-4.024907648563385E-001,9.077853560447693E-001,1.364146079868078E-002,-8.560538291931152E-003,-4.024907648563385E-001,9.077853560447693E-001,
1.417900000000000E+009,1.365797035396099E-002,1.464591361582279E-002,-3.831069767475128E-001,9.034242630004883E-001,1.365797035396099E-002,1.464591361582279E-002,-3.831069767475128E-001,9.034242630004883E-001,
1.426266666666667E+009,2.385419234633446E-002,3.165473416447640E-002,-3.474194407463074E-001,9.301878809928894E-001,2.385419234633446E-002,3.165473416447640E-002,-3.474194407463074E-001,9.301878809928894E-001,
1.434633333333334E+009,4.441744834184647E-002,3.998811542987824E-002,-3.372682332992554E-001,9.255750179290772E-001,4.441744834184647E-002,3.998811542987824E-002,-3.372682332992554E-001,9.255750179290772E-001,
1.443000000000000E+009,6.515732407569885E-002,3.707597032189369E-002,-3.125050663948059E-001,9.334240555763245E-001,6.515732407569885E-002,3.707597032189369E-002,-3.125050663948059E-001,9.334240555763245E-001,
1.451366666666667E+009,8.179601281881332E-002,2.130599506199360E-002,-2.856802344322205E-001,9.333707094192505E-001,8.179601281881332E-002,2.130599506199360E-002,-2.856802344322205E-001,9.333707094192505E-001,
1.459733333333334E+009,8.909106254577637E-002,6.670857546851039E-004,-2.601106166839600E-001,9.597885608673096E-001,8.909106254577637E-002,6.670857546851039E-004,-2.601106166839600E-001,9.597885608673096E-001,
