% Version 1.00
%
%freq[Hz],re:Trc1_S11,im:Trc1_S11,re:Trc2_S21,im:Trc2_S21,re:Trc3_S11,im:Trc3_S11,re:Trc4_S21,im:Trc4_S21,
6.900000000000000E+008,-4.917746409773827E-002,4.126690328121185E-002,-5.094617605209351E-001,-8.471406102180481E-001,-4.917746409773827E-002,4.126690328121185E-002,-5.094617605209351E-001,-8.471406102180481E-001,
6.983666666666666E+008,-4.113836213946343E-002,4.158532992005348E-002,-5.341328978538513E-001,-8.363714814186096E-001,-4.113836213946343E-002,4.158532992005348E-002,-5.341328978538513E-001,-8.363714814186096E-001,
7.067333333333334E+008,-3.532517701387405E-002,3.709654510021210E-002,-5.567193031311035E-001,-8.102440237998962E-001,-3.532517701387405E-002,3.709654510021210E-002,-5.567193031311035E-001,-8.102440237998962E-001,
7.151000000000000E+008,-3.499474003911018E-002,2.952059917151928E-002,-5.923775434494019E-001,-8.082409501075745E-001,-3.499474003911018E-002,2.952059917151928E-002,-5.923775434494019E-001,-8.082409501075745E-001,
7.234666666666666E+008,-3.711744770407677E-002,2.449021674692631E-002,-6.054934859275818E-001,-7.921285629272461E-001,-3.711744770407677E-002,2.449021674692631E-002,-6.054934859275818E-001,-7.921285629272461E-001,
7.318333333333334E+008,-4.452770203351975E-002,2.231379225850105E-002,-6.229281425476074E-001,-7.740586996078491E-001,-4.452770203351975E-002,2.231379225850105E-002,-6.229281425476074E-001,-7.740586996078491E-001,
7.402000000000000E+008,-5.066289007663727E-002,2.448602393269539E-002,-6.331549286842346E-001,-7.493336200714111E-001,-5.066289007663727E-002,2.448602393269539E-002,-6.331549286842346E-001,-7.493336200714111E-001,
7.485666666666666E+008,-5.587062612175942E-002,3.164805471897125E-002,-6.632313132286072E-001,-7.355833053588867E-001,-5.587062612175942E-002,3.164805471897125E-002,-6.632313132286072E-001,-7.355833053588867E-001,
7.569333333333334E+008,-5.943724513053894E-002,4.156142100691795E-002,-6.810615658760071E-001,-7.222035527229309E-001,-5.943724513053894E-002,4.156142100691795E-002,-6.810615658760071E-001,-7.222035527229309E-001,
7.653000000000000E+008,-5.383775010704994E-002,5.048874765634537E-002,-6.898648142814636E-001,-7.031483650207520E-001,-5.383775010704994E-002,5.048874765634537E-002,-6.898648142814636E-001,-7.031483650207520E-001,
7.736666666666666E+008,-4.727859422564507E-002,5.719057843089104E-002,-7.014986872673035E-001,-6.991155147552490E-001,-4.727859422564507E-002,5.719057843089104E-002,-7.014986872673035E-001,-6.991155147552490E-001,
7.820333333333334E+008,-3.839893639087677E-002,6.115427613258362E-002,-7.348723411560059E-001,-6.699971556663513E-001,-3.839893639087677E-002,6.115427613258362E-002,-7.348723411560059E-001,-6.699971556663513E-001,
7.904000000000000E+008,-2.837041765451431E-002,6.004735082387924E-002,-7.441134452819824E-001,-6.519510746002197E-001,-2.837041765451431E-002,6.004735082387924E-002,-7.441134452819824E-001,-6.519510746002197E-001,
7.987666666666666E+008,-2.399484626948834E-002,5.486783757805824E-002,-7.492392063140869E-001,-6.355487704277039E-001,-2.399484626948834E-002,5.486783757805824E-002,-7.492392063140869E-001,-6.355487704277039E-001,
8.071333333333334E+008,-2.224078029394150E-002,4.851432517170906E-002,-7.755102515220642E-001,-6.030392050743103E-001,-2.224078029394150E-002,4.851432517170906E-002,-7.755102515220642E-001,-6.030392050743103E-001,
8.155000000000000E+008,-2.522983215749264E-002,4.153311252593994E-002,-8.020507693290710E-001,-5.919939279556274E-001,-2.522983215749264E-002,4.153311252593994E-002,-8.020507693290710E-001,-5.919939279556274E-001,
8.238666666666666E+008,-3.189140930771828E-002,3.979456797242165E-002,-8.079721331596375E-001,-5.681708455085754E-001,-3.189140930771828E-002,3.979456797242165E-002,-8.079721331596375E-001,-5.681708455085754E-001,
8.322333333333334E+008,-3.738902136683464E-002,4.135941341519356E-002,-8.174871206283569E-001,-5.503884553909302E-001,-3.738902136683464E-002,4.135941341519356E-002,-8.174871206283569E-001,-5.503884553909302E-001,
8.406000000000000E+008,-4.189025610685349E-002,4.481424018740654E-002,-8.295888900756836E-001,-5.273093581199646E-001,-4.189025610685349E-002,4.481424018740654E-002,-8.295888900756836E-001,-5.273093581199646E-001,
8.489666666666668E+008,-4.322664439678192E-002,5.608589947223663E-002,-8.407710194587708E-001,-4.980635046958923E-001,-4.322664439678192E-002,5.608589947223663E-002,-8.407710194587708E-001,-4.980635046958923E-001,
8.573333333333334E+008,-4.077791795134544E-002,6.397540867328644E-002,-8.423544764518738E-001,-4.675942957401276E-001,-4.077791795134544E-002,6.397540867328644E-002,-8.423544764518738E-001,-4.675942957401276E-001,
8.657000000000000E+008,-3.522340580821037E-002,7.150603830814362E-002,-8.704982995986939E-001,-4.711371362209320E-001,-3.522340580821037E-002,7.150603830814362E-002,-8.704982995986939E-001,-4.711371362209320E-001,
8.740666666666668E+008,-2.580670826137066E-002,7.651720196008682E-002,-8.766109943389893E-001,-4.461205601692200E-001,-2.580670826137066E-002,7.651720196008682E-002,-8.766109943389893E-001,-4.461205601692200E-001,
8.824333333333334E+008,-1.748336292803288E-002,7.789868116378784E-002,-8.948209285736084E-001,-4.217947721481323E-001,-1.748336292803288E-002,7.789868116378784E-002,-8.948209285736084E-001,-4.217947721481323E-001,
8.908000000000000E+008,-9.281545877456665E-003,7.435815781354904E-002,-9.080597162246704E-001,-4.038608670234680E-001,-9.281545877456665E-003,7.435815781354904E-002,-9.080597162246704E-001,-4.038608670234680E-001,
8.991666666666668E+008,-3.794704796746373E-003,6.836479902267456E-002,-9.080381989479065E-001,-3.766955733299255E-001,-3.794704796746373E-003,6.836479902267456E-002,-9.080381989479065E-001,-3.766955733299255E-001,
9.075333333333334E+008,-3.330950159579516E-003,6.098004430532455E-002,-9.219256043434143E-001,-3.507110476493835E-001,-3.330950159579516E-003,6.098004430532455E-002,-9.219256043434143E-001,-3.507110476493835E-001,
9.159000000000000E+008,-6.348541472107172E-003,5.520366877317429E-002,-9.427934288978577E-001,-3.259055316448212E-001,-6.348541472107172E-003,5.520366877317429E-002,-9.427934288978577E-001,-3.259055316448212E-001,
9.242666666666668E+008,-1.296133734285832E-002,5.553381517529488E-002,-9.339960813522339E-001,-3.040400445461273E-001,-1.296133734285832E-002,5.553381517529488E-002,-9.339960813522339E-001,-3.040400445461273E-001,
9.326333333333334E+008,-1.787861064076424E-002,5.789485573768616E-002,-9.501055479049683E-001,-2.897342443466187E-001,-1.787861064076424E-002,5.789485573768616E-002,-9.501055479049683E-001,-2.897342443466187E-001,
9.410000000000000E+008,-2.158123254776001E-002,6.218152120709419E-002,-9.591266512870789E-001,-2.527915239334106E-001,-2.158123254776001E-002,6.218152120709419E-002,-9.591266512870789E-001,-2.527915239334106E-001,
9.493666666666668E+008,-2.270793356001377E-002,7.145056128501892E-002,-9.638343453407288E-001,-2.226554155349731E-001,-2.270793356001377E-002,7.145056128501892E-002,-9.638343453407288E-001,-2.226554155349731E-001,
9.577333333333334E+008,-1.863846182823181E-002,8.126802742481232E-002,-9.697527885437012E-001,-2.088603079319000E-001,-1.863846182823181E-002,8.126802742481232E-002,-9.697527885437012E-001,-2.088603079319000E-001,
9.661000000000000E+008,-9.551106952130795E-003,8.772889524698257E-002,-9.696657061576843E-001,-1.663110405206680E-001,-9.551106952130795E-003,8.772889524698257E-002,-9.696657061576843E-001,-1.663110405206680E-001,
9.744666666666668E+008,1.488172798417509E-003,8.765224367380142E-002,-9.673602581024170E-001,-1.565356701612473E-001,1.488172798417509E-003,8.765224367380142E-002,-9.673602581024170E-001,-1.565356701612473E-001,
9.828333333333334E+008,1.094281859695911E-002,8.858652412891388E-002,-9.834219217300415E-001,-1.366045773029327E-001,1.094281859695911E-002,8.858652412891388E-002,-9.834219217300415E-001,-1.366045773029327E-001,
9.912000000000000E+008,2.150549739599228E-002,8.198001980781555E-002,-9.802169799804688E-001,-1.146066486835480E-001,2.150549739599228E-002,8.198001980781555E-002,-9.802169799804688E-001,-1.146066486835480E-001,
9.995666666666668E+008,2.516742050647736E-002,7.412967830896378E-002,-9.922560453414917E-001,-7.741318643093109E-002,2.516742050647736E-002,7.412967830896378E-002,-9.922560453414917E-001,-7.741318643093109E-002,
1.007933333333333E+009,2.860306575894356E-002,6.454132497310638E-002,-1.005667090415955E+000,-6.047175452113152E-002,2.860306575894356E-002,6.454132497310638E-002,-1.005667090415955E+000,-6.047175452113152E-002,
1.016300000000000E+009,2.249549888074398E-002,5.856600776314735E-002,-9.922754764556885E-001,-3.348747268319130E-002,2.249549888074398E-002,5.856600776314735E-002,-9.922754764556885E-001,-3.348747268319130E-002,
1.024666666666667E+009,1.471326500177383E-002,5.495869740843773E-002,-9.876893162727356E-001,-7.616299204528332E-003,1.471326500177383E-002,5.495869740843773E-002,-9.876893162727356E-001,-7.616299204528332E-003,
1.033033333333333E+009,9.935400448739529E-003,5.982912704348564E-002,-9.940386414527893E-001,1.913837902247906E-002,9.935400448739529E-003,5.982912704348564E-002,-9.940386414527893E-001,1.913837902247906E-002,
1.041400000000000E+009,3.664762945845723E-003,6.493610888719559E-002,-9.938092827796936E-001,4.023821651935577E-002,3.664762945845723E-003,6.493610888719559E-002,-9.938092827796936E-001,4.023821651935577E-002,
1.049766666666667E+009,7.358135189861059E-003,7.424504309892654E-002,-9.784392118453980E-001,7.619126141071320E-002,7.358135189861059E-003,7.424504309892654E-002,-9.784392118453980E-001,7.619126141071320E-002,
1.058133333333333E+009,1.224219426512718E-002,8.322908729314804E-002,-9.799340367317200E-001,9.837395697832108E-002,1.224219426512718E-002,8.322908729314804E-002,-9.799340367317200E-001,9.837395697832108E-002,
1.066500000000000E+009,2.397045120596886E-002,8.698148280382156E-002,-9.941942691802979E-001,1.329295784235001E-001,2.397045120596886E-002,8.698148280382156E-002,-9.941942691802979E-001,1.329295784235001E-001,
1.074866666666667E+009,3.786617890000343E-002,8.509232848882675E-002,-9.871675372123718E-001,1.530816256999970E-001,3.786617890000343E-002,8.509232848882675E-002,-9.871675372123718E-001,1.530816256999970E-001,
1.083233333333334E+009,4.666328430175781E-002,7.664293795824051E-002,-9.709710478782654E-001,1.738050431013107E-001,4.666328430175781E-002,7.664293795824051E-002,-9.709710478782654E-001,1.738050431013107E-001,
1.091600000000000E+009,5.309493467211723E-002,6.568884104490280E-002,-9.531450867652893E-001,1.930542588233948E-001,5.309493467211723E-002,6.568884104490280E-002,-9.531450867652893E-001,1.930542588233948E-001,
1.099966666666667E+009,5.192429944872856E-002,5.217865109443665E-002,-9.481527805328369E-001,2.309947609901428E-001,5.192429944872856E-002,5.217865109443665E-002,-9.481527805328369E-001,2.309947609901428E-001,
1.108333333333334E+009,4.366287589073181E-002,4.444511979818344E-002,-9.481971859931946E-001,2.400631457567215E-001,4.366287589073181E-002,4.444511979818344E-002,-9.481971859931946E-001,2.400631457567215E-001,
1.116700000000000E+009,3.315188735723496E-002,4.154032841324806E-002,-9.403727054595947E-001,2.733298838138580E-001,3.315188735723496E-002,4.154032841324806E-002,-9.403727054595947E-001,2.733298838138580E-001,
1.125066666666667E+009,2.230148576200008E-002,4.655496403574944E-002,-9.402316212654114E-001,2.900161445140839E-001,2.230148576200008E-002,4.655496403574944E-002,-9.402316212654114E-001,2.900161445140839E-001,
1.133433333333334E+009,1.503972802311182E-002,5.656718090176582E-002,-9.371550083160400E-001,3.351305127143860E-001,1.503972802311182E-002,5.656718090176582E-002,-9.371550083160400E-001,3.351305127143860E-001,
1.141800000000000E+009,1.456201542168856E-002,6.998645514249802E-002,-9.134380817413330E-001,3.497475683689117E-001,1.456201542168856E-002,6.998645514249802E-002,-9.134380817413330E-001,3.497475683689117E-001,
1.150166666666667E+009,2.426439896225929E-002,8.379889279603958E-002,-9.043847918510437E-001,3.499171733856201E-001,2.426439896225929E-002,8.379889279603958E-002,-9.043847918510437E-001,3.499171733856201E-001,
1.158533333333334E+009,4.088210314512253E-002,9.021318703889847E-002,-8.959786891937256E-001,3.901408016681671E-001,4.088210314512253E-002,9.021318703889847E-002,-8.959786891937256E-001,3.901408016681671E-001,
1.166900000000000E+009,6.038205325603485E-002,8.918688446283341E-002,-8.792328834533691E-001,4.099194407463074E-001,6.038205325603485E-002,8.918688446283341E-002,-8.792328834533691E-001,4.099194407463074E-001,
1.175266666666667E+009,7.624741643667221E-002,7.766224443912506E-002,-8.735977411270142E-001,4.390925168991089E-001,7.624741643667221E-002,7.766224443912506E-002,-8.735977411270142E-001,4.390925168991089E-001,
1.183633333333334E+009,8.797495812177658E-002,6.231687217950821E-002,-8.720837831497192E-001,4.510357081890106E-001,8.797495812177658E-002,6.231687217950821E-002,-8.720837831497192E-001,4.510357081890106E-001,
1.192000000000000E+009,8.746437728404999E-002,4.326261579990387E-002,-8.587677478790283E-001,4.732604920864105E-001,8.746437728404999E-002,4.326261579990387E-002,-8.587677478790283E-001,4.732604920864105E-001,
1.200366666666667E+009,7.763557136058807E-002,2.696761861443520E-002,-8.459714651107788E-001,4.946448802947998E-001,7.763557136058807E-002,2.696761861443520E-002,-8.459714651107788E-001,4.946448802947998E-001,
1.208733333333334E+009,6.255631148815155E-002,1.858931034803391E-002,-8.381417989730835E-001,5.367031097412109E-001,6.255631148815155E-002,1.858931034803391E-002,-8.381417989730835E-001,5.367031097412109E-001,
1.217100000000000E+009,4.681434109807015E-002,2.028355933725834E-002,-8.339923620223999E-001,5.472160577774048E-001,4.681434109807015E-002,2.028355933725834E-002,-8.339923620223999E-001,5.472160577774048E-001,
1.225466666666667E+009,3.504779562354088E-002,3.168710693717003E-002,-8.010487556457520E-001,5.713605880737305E-001,3.504779562354088E-002,3.168710693717003E-002,-8.010487556457520E-001,5.713605880737305E-001,
1.233833333333334E+009,3.133577480912209E-002,4.832500219345093E-002,-7.957152724266052E-001,5.825808048248291E-001,3.133577480912209E-002,4.832500219345093E-002,-7.957152724266052E-001,5.825808048248291E-001,
1.242200000000000E+009,4.055746644735336E-002,6.226086989045143E-002,-7.691009044647217E-001,6.158378124237061E-001,4.055746644735336E-002,6.226086989045143E-002,-7.691009044647217E-001,6.158378124237061E-001,
1.250566666666667E+009,5.426324158906937E-002,7.147844135761261E-002,-7.471162676811218E-001,6.204417347908020E-001,5.426324158906937E-002,7.147844135761261E-002,-7.471162676811218E-001,6.204417347908020E-001,
1.258933333333334E+009,7.483629137277603E-002,7.059863954782486E-002,-7.410907149314880E-001,6.420400738716126E-001,7.483629137277603E-002,7.059863954782486E-002,-7.410907149314880E-001,6.420400738716126E-001,
1.267300000000000E+009,9.425278753042221E-002,5.880030617117882E-002,-7.221440672874451E-001,6.557767391204834E-001,9.425278753042221E-002,5.880030617117882E-002,-7.221440672874451E-001,6.557767391204834E-001,
1.275666666666667E+009,1.028792709112167E-001,4.025193303823471E-002,-7.097845673561096E-001,6.635928153991699E-001,1.028792709112167E-001,4.025193303823471E-002,-7.097845673561096E-001,6.635928153991699E-001,
1.284033333333334E+009,1.044674590229988E-001,1.885861344635487E-002,-6.935340166091919E-001,7.056095004081726E-001,1.044674590229988E-001,1.885861344635487E-002,-6.935340166091919E-001,7.056095004081726E-001,
1.292400000000000E+009,9.380183368921280E-002,3.411152283661068E-004,-6.816207766532898E-001,7.089762091636658E-001,9.380183368921280E-002,3.411152283661068E-004,-6.816207766532898E-001,7.089762091636658E-001,
1.300766666666667E+009,7.420033961534500E-002,-7.778903003782034E-003,-6.583511829376221E-001,7.329255938529968E-001,7.420033961534500E-002,-7.778903003782034E-003,-6.583511829376221E-001,7.329255938529968E-001,
1.309133333333334E+009,5.420340597629547E-002,-5.812811199575663E-003,-6.339773535728455E-001,7.474978566169739E-001,5.420340597629547E-002,-5.812811199575663E-003,-6.339773535728455E-001,7.474978566169739E-001,
1.317500000000000E+009,4.025838524103165E-002,6.619235966354609E-003,-6.200842261314392E-001,7.775687575340271E-001,4.025838524103165E-002,6.619235966354609E-003,-6.200842261314392E-001,7.775687575340271E-001,
1.325866666666667E+009,3.647884353995323E-002,2.364072017371655E-002,-5.994166135787964E-001,7.921849489212036E-001,3.647884353995323E-002,2.364072017371655E-002,-5.994166135787964E-001,7.921849489212036E-001,
1.334233333333334E+009,4.552774131298065E-002,4.080974683165550E-002,-5.807517170906067E-001,7.977822422981262E-001,4.552774131298065E-002,4.080974683165550E-002,-5.807517170906067E-001,7.977822422981262E-001,
1.342600000000000E+009,6.157348677515984E-002,4.888908192515373E-002,-5.626050829887390E-001,8.145484924316406E-001,6.157348677515984E-002,4.888908192515373E-002,-5.626050829887390E-001,8.145484924316406E-001,
1.350966666666667E+009,8.191680908203125E-002,4.488238319754601E-002,-5.362083911895752E-001,8.257732391357422E-001,8.191680908203125E-002,4.488238319754601E-002,-5.362083911895752E-001,8.257732391357422E-001,
1.359333333333334E+009,9.653174132108688E-002,3.044693358242512E-002,-5.229486227035523E-001,8.251359462738037E-001,9.653174132108688E-002,3.044693358242512E-002,-5.229486227035523E-001,8.251359462738037E-001,
1.367700000000000E+009,1.018567010760307E-001,9.980593807995319E-003,-4.896284639835358E-001,8.433057665824890E-001,1.018567010760307E-001,9.980593807995319E-003,-4.896284639835358E-001,8.433057665824890E-001,
1.376066666666667E+009,9.755794703960419E-002,-1.252778433263302E-002,-4.742282032966614E-001,8.522068858146668E-001,9.755794703960419E-002,-1.252778433263302E-002,-4.742282032966614E-001,8.522068858146668E-001,
1.384433333333334E+009,8.021174371242523E-002,-2.748893015086651E-002,-4.588973224163055E-001,8.827464580535889E-001,8.021174371242523E-002,-2.748893015086651E-002,-4.588973224163055E-001,8.827464580535889E-001,
1.392800000000000E+009,5.957973003387451E-002,-2.937594056129456E-002,-4.378376603126526E-001,8.909651041030884E-001,5.957973003387451E-002,-2.937594056129456E-002,-4.378376603126526E-001,8.909651041030884E-001,
1.401166666666667E+009,3.953566029667854E-002,-2.146032080054283E-002,-4.103678166866303E-001,8.981301188468933E-001,3.953566029667854E-002,-2.146032080054283E-002,-4.103678166866303E-001,8.981301188468933E-001,
1.409533333333334E+009,2.676056325435638E-002,-3.923468757420778E-003,-3.806383907794952E-001,9.123338460922241E-001,2.676056325435638E-002,-3.923468757420778E-003,-3.806383907794952E-001,9.123338460922241E-001,
1.417900000000000E+009,2.866615541279316E-002,1.932816207408905E-002,-3.607001602649689E-001,9.081833958625794E-001,2.866615541279316E-002,1.932816207408905E-002,-3.607001602649689E-001,9.081833958625794E-001,
1.426266666666667E+009,4.013149812817574E-002,3.567752987146378E-002,-3.230202794075012E-001,9.333572387695313E-001,4.013149812817574E-002,3.567752987146378E-002,-3.230202794075012E-001,9.333572387695313E-001,
1.434633333333334E+009,6.092738360166550E-002,4.307851940393448E-002,-3.135634064674377E-001,9.273233413696289E-001,6.092738360166550E-002,4.307851940393448E-002,-3.135634064674377E-001,9.273233413696289E-001,
1.443000000000000E+009,8.138588070869446E-002,3.909506648778915E-002,-2.890967726707459E-001,9.342646002769470E-001,8.138588070869446E-002,3.909506648778915E-002,-2.890967726707459E-001,9.342646002769470E-001,
1.451366666666667E+009,9.692465513944626E-002,2.257375977933407E-002,-2.631834149360657E-001,9.341824650764465E-001,9.692465513944626E-002,2.257375977933407E-002,-2.631834149360657E-001,9.341824650764465E-001,
1.459733333333334E+009,1.027785018086433E-001,1.524226972833276E-003,-2.371326982975006E-001,9.602394700050354E-001,1.027785018086433E-001,1.524226972833276E-003,-2.371326982975006E-001,9.602394700050354E-001,
