% Version 1.00
%
%freq[Hz],re:Trc1_S11,im:Trc1_S11,re:Trc2_S21,im:Trc2_S21,re:Trc3_S11,im:Trc3_S11,re:Trc4_S21,im:Trc4_S21,
6.900000000000000E+008,-4.344426468014717E-002,3.466232493519783E-002,-4.997565746307373E-001,-8.547627329826355E-001,-4.344426468014717E-002,3.466232493519783E-002,-4.997565746307373E-001,-8.547627329826355E-001,
6.983666666666666E+008,-3.560539335012436E-002,3.501773998141289E-002,-5.239169597625732E-001,-8.447554707527161E-001,-3.560539335012436E-002,3.501773998141289E-002,-5.239169597625732E-001,-8.447554707527161E-001,
7.067333333333334E+008,-2.947843819856644E-002,3.037337213754654E-002,-5.471293926239014E-001,-8.184874057769775E-001,-2.947843819856644E-002,3.037337213754654E-002,-5.471293926239014E-001,-8.184874057769775E-001,
7.151000000000000E+008,-2.941256389021874E-002,2.253193594515324E-002,-5.820706486701965E-001,-8.172724246978760E-001,-2.941256389021874E-002,2.253193594515324E-002,-5.820706486701965E-001,-8.172724246978760E-001,
7.234666666666666E+008,-3.132171556353569E-002,1.726003363728523E-002,-5.935943126678467E-001,-7.994358539581299E-001,-3.132171556353569E-002,1.726003363728523E-002,-5.935943126678467E-001,-7.994358539581299E-001,
7.318333333333334E+008,-3.895464539527893E-002,1.473544910550118E-002,-6.142647266387940E-001,-7.849014401435852E-001,-3.895464539527893E-002,1.473544910550118E-002,-6.142647266387940E-001,-7.849014401435852E-001,
7.402000000000000E+008,-4.535559937357903E-002,1.646623946726322E-002,-6.238353252410889E-001,-7.590779662132263E-001,-4.535559937357903E-002,1.646623946726322E-002,-6.238353252410889E-001,-7.590779662132263E-001,
7.485666666666666E+008,-5.099302530288696E-002,2.325766161084175E-002,-6.539031267166138E-001,-7.464639544487000E-001,-5.099302530288696E-002,2.325766161084175E-002,-6.539031267166138E-001,-7.464639544487000E-001,
7.569333333333334E+008,-5.496794357895851E-002,3.287061303853989E-002,-6.709517240524292E-001,-7.312711477279663E-001,-5.496794357895851E-002,3.287061303853989E-002,-6.709517240524292E-001,-7.312711477279663E-001,
7.653000000000000E+008,-4.959608614444733E-002,4.162373393774033E-002,-6.796301603317261E-001,-7.127642035484314E-001,-4.959608614444733E-002,4.162373393774033E-002,-6.796301603317261E-001,-7.127642035484314E-001,
7.736666666666666E+008,-4.329918324947357E-002,4.811061546206474E-002,-6.929494142532349E-001,-7.105096578598023E-001,-4.329918324947357E-002,4.811061546206474E-002,-6.929494142532349E-001,-7.105096578598023E-001,
7.820333333333334E+008,-3.456790745258331E-002,5.211212858557701E-002,-7.263141274452210E-001,-6.816952824592590E-001,-3.456790745258331E-002,5.211212858557701E-002,-7.263141274452210E-001,-6.816952824592590E-001,
7.904000000000000E+008,-2.461544610559940E-002,5.083755031228066E-002,-7.351377010345459E-001,-6.629690527915955E-001,-2.461544610559940E-002,5.083755031228066E-002,-7.351377010345459E-001,-6.629690527915955E-001,
7.987666666666666E+008,-2.036870270967484E-002,4.561844468116760E-002,-7.413633465766907E-001,-6.475592851638794E-001,-2.036870270967484E-002,4.561844468116760E-002,-7.413633465766907E-001,-6.475592851638794E-001,
8.071333333333334E+008,-1.833278313279152E-002,3.894769772887230E-002,-7.676314115524292E-001,-6.154425740242004E-001,-1.833278313279152E-002,3.894769772887230E-002,-7.676314115524292E-001,-6.154425740242004E-001,
8.155000000000000E+008,-2.148415334522724E-002,3.190852329134941E-002,-7.947074174880981E-001,-6.050126552581787E-001,-2.148415334522724E-002,3.190852329134941E-002,-7.947074174880981E-001,-6.050126552581787E-001,
8.238666666666666E+008,-2.841906435787678E-002,2.974282577633858E-002,-8.011077046394348E-001,-5.810936093330383E-001,-2.841906435787678E-002,2.974282577633858E-002,-8.011077046394348E-001,-5.810936093330383E-001,
8.322333333333334E+008,-3.430490568280220E-002,3.096995316445828E-002,-8.108670711517334E-001,-5.638005733489990E-001,-3.430490568280220E-002,3.096995316445828E-002,-8.108670711517334E-001,-5.638005733489990E-001,
8.406000000000000E+008,-3.922580927610397E-002,3.408219665288925E-002,-8.216812014579773E-001,-5.406062602996826E-001,-3.922580927610397E-002,3.408219665288925E-002,-8.216812014579773E-001,-5.406062602996826E-001,
8.489666666666668E+008,-4.104170203208923E-002,4.509764164686203E-002,-8.342821598052979E-001,-5.128964185714722E-001,-4.104170203208923E-002,4.509764164686203E-002,-8.342821598052979E-001,-5.128964185714722E-001,
8.573333333333334E+008,-3.914891555905342E-002,5.284629017114639E-002,-8.361212611198425E-001,-4.814783334732056E-001,-3.914891555905342E-002,5.284629017114639E-002,-8.361212611198425E-001,-4.814783334732056E-001,
8.657000000000000E+008,-3.411222621798515E-002,6.021830439567566E-002,-8.648827075958252E-001,-4.847206771373749E-001,-3.411222621798515E-002,6.021830439567566E-002,-8.648827075958252E-001,-4.847206771373749E-001,
8.740666666666668E+008,-2.526869997382164E-002,6.529283523559570E-002,-8.712472915649414E-001,-4.618975222110748E-001,-2.526869997382164E-002,6.529283523559570E-002,-8.712472915649414E-001,-4.618975222110748E-001,
8.824333333333334E+008,-1.701323501765728E-002,6.653784960508347E-002,-8.886764645576477E-001,-4.373059868812561E-001,-1.701323501765728E-002,6.653784960508347E-002,-8.886764645576477E-001,-4.373059868812561E-001,
8.908000000000000E+008,-8.778794668614864E-003,6.302617490291596E-002,-9.021555185317993E-001,-4.193941950798035E-001,-8.778794668614864E-003,6.302617490291596E-002,-9.021555185317993E-001,-4.193941950798035E-001,
8.991666666666668E+008,-3.408178919926286E-003,5.719045549631119E-002,-9.038785099983215E-001,-3.919836580753326E-001,-3.408178919926286E-003,5.719045549631119E-002,-9.038785099983215E-001,-3.919836580753326E-001,
9.075333333333334E+008,-3.217106685042381E-003,4.946748167276382E-002,-9.170576930046082E-001,-3.670267760753632E-001,-3.217106685042381E-003,4.946748167276382E-002,-9.170576930046082E-001,-3.670267760753632E-001,
9.159000000000000E+008,-6.135093979537487E-003,4.365786910057068E-002,-9.386849403381348E-001,-3.432015776634216E-001,-6.135093979537487E-003,4.365786910057068E-002,-9.386849403381348E-001,-3.432015776634216E-001,
9.242666666666668E+008,-1.309528760612011E-002,4.361118003726006E-002,-9.295779466629028E-001,-3.202374577522278E-001,-1.309528760612011E-002,4.361118003726006E-002,-9.295779466629028E-001,-3.202374577522278E-001,
9.326333333333334E+008,-1.848182640969753E-002,4.552152380347252E-002,-9.454258680343628E-001,-3.063826858997345E-001,-1.848182640969753E-002,4.552152380347252E-002,-9.454258680343628E-001,-3.063826858997345E-001,
9.410000000000000E+008,-2.285311929881573E-002,4.992017522454262E-002,-9.579126834869385E-001,-2.705948948860169E-001,-2.285311929881573E-002,4.992017522454262E-002,-9.579126834869385E-001,-2.705948948860169E-001,
9.493666666666668E+008,-2.467737346887589E-002,5.892058834433556E-002,-9.615958929061890E-001,-2.400533705949783E-001,-2.467737346887589E-002,5.892058834433556E-002,-9.615958929061890E-001,-2.400533705949783E-001,
9.577333333333334E+008,-2.145963348448277E-002,6.867227703332901E-002,-9.677262902259827E-001,-2.267805635929108E-001,-2.145963348448277E-002,6.867227703332901E-002,-9.677262902259827E-001,-2.267805635929108E-001,
9.661000000000000E+008,-1.286109816282988E-002,7.506427168846130E-002,-9.687899351119995E-001,-1.844416856765747E-001,-1.286109816282988E-002,7.506427168846130E-002,-9.687899351119995E-001,-1.844416856765747E-001,
9.744666666666668E+008,-2.256771083921194E-003,7.537662237882614E-002,-9.674302935600281E-001,-1.729428768157959E-001,-2.256771083921194E-003,7.537662237882614E-002,-9.674302935600281E-001,-1.729428768157959E-001,
9.828333333333334E+008,6.947010755538940E-003,7.657153904438019E-002,-9.823108911514282E-001,-1.543408781290054E-001,6.947010755538940E-003,7.657153904438019E-002,-9.823108911514282E-001,-1.543408781290054E-001,
9.912000000000000E+008,1.753471046686173E-002,7.001756131649017E-002,-9.809174537658691E-001,-1.328334361314774E-001,1.753471046686173E-002,7.001756131649017E-002,-9.809174537658691E-001,-1.328334361314774E-001,
9.995666666666668E+008,2.131757885217667E-002,6.232659891247749E-002,-9.929245114326477E-001,-9.525872766971588E-002,2.131757885217667E-002,6.232659891247749E-002,-9.929245114326477E-001,-9.525872766971588E-002,
1.007933333333333E+009,2.470781654119492E-002,5.295039340853691E-002,-1.008205890655518E+000,-7.834972441196442E-002,2.470781654119492E-002,5.295039340853691E-002,-1.008205890655518E+000,-7.834972441196442E-002,
1.016300000000000E+009,1.835956983268261E-002,4.673549905419350E-002,-9.950625896453857E-001,-5.329339206218720E-002,1.835956983268261E-002,4.673549905419350E-002,-9.950625896453857E-001,-5.329339206218720E-002,
1.024666666666667E+009,1.033425237983465E-002,4.297739267349243E-002,-9.915466904640198E-001,-2.712214738130570E-002,1.033425237983465E-002,4.297739267349243E-002,-9.915466904640198E-001,-2.712214738130570E-002,
1.033033333333333E+009,4.857440013438463E-003,4.747634008526802E-002,-9.977510571479797E-001,-9.064002078957856E-004,4.857440013438463E-003,4.747634008526802E-002,-9.977510571479797E-001,-9.064002078957856E-004,
1.041400000000000E+009,-2.096182201057673E-003,5.242484062910080E-002,-9.982525110244751E-001,2.015735395252705E-002,-2.096182201057673E-003,5.242484062910080E-002,-9.982525110244751E-001,2.015735395252705E-002,
1.049766666666667E+009,7.221776177175343E-004,6.187224760651588E-002,-9.853891730308533E-001,5.624206736683846E-002,7.221776177175343E-004,6.187224760651588E-002,-9.853891730308533E-001,5.624206736683846E-002,
1.058133333333333E+009,4.903174005448818E-003,7.099150121212006E-002,-9.858931899070740E-001,7.842881977558136E-002,4.903174005448818E-003,7.099150121212006E-002,-9.858931899070740E-001,7.842881977558136E-002,
1.066500000000000E+009,1.591952517628670E-002,7.510283589363098E-002,-1.000753641128540E+000,1.125750467181206E-001,1.591952517628670E-002,7.510283589363098E-002,-1.000753641128540E+000,1.125750467181206E-001,
1.074866666666667E+009,2.961122244596481E-002,7.361777126789093E-002,-9.944553971290588E-001,1.349191218614578E-001,2.961122244596481E-002,7.361777126789093E-002,-9.944553971290588E-001,1.349191218614578E-001,
1.083233333333334E+009,3.838177770376205E-002,6.559152156114578E-002,-9.774957895278931E-001,1.553417444229126E-001,3.838177770376205E-002,6.559152156114578E-002,-9.774957895278931E-001,1.553417444229126E-001,
1.091600000000000E+009,4.482250660657883E-002,5.478217825293541E-002,-9.613860845565796E-001,1.743444353342056E-001,4.482250660657883E-002,5.478217825293541E-002,-9.613860845565796E-001,1.743444353342056E-001,
1.099966666666667E+009,4.403383284807205E-002,4.121002182364464E-002,-9.563469290733337E-001,2.124153077602387E-001,4.403383284807205E-002,4.121002182364464E-002,-9.563469290733337E-001,2.124153077602387E-001,
1.108333333333334E+009,3.570973128080368E-002,3.329518437385559E-002,-9.563093781471252E-001,2.213220000267029E-001,3.570973128080368E-002,3.329518437385559E-002,-9.563093781471252E-001,2.213220000267029E-001,
1.116700000000000E+009,2.488874271512032E-002,3.000304847955704E-002,-9.490848183631897E-001,2.534495890140533E-001,2.488874271512032E-002,3.000304847955704E-002,-9.490848183631897E-001,2.534495890140533E-001,
1.125066666666667E+009,1.347597781568766E-002,3.462423384189606E-002,-9.510258436203003E-001,2.709244191646576E-001,1.347597781568766E-002,3.462423384189606E-002,-9.510258436203003E-001,2.709244191646576E-001,
1.133433333333334E+009,5.041534081101418E-003,4.450827836990356E-002,-9.499621391296387E-001,3.155874311923981E-001,5.041534081101418E-003,4.450827836990356E-002,-9.499621391296387E-001,3.155874311923981E-001,
1.141800000000000E+009,3.461496438831091E-003,5.835666880011559E-002,-9.259504675865173E-001,3.296173512935638E-001,3.461496438831091E-003,5.835666880011559E-002,-9.259504675865173E-001,3.296173512935638E-001,
1.150166666666667E+009,1.247575972229242E-002,7.266703993082047E-002,-9.165778160095215E-001,3.305444419384003E-001,1.247575972229242E-002,7.266703993082047E-002,-9.165778160095215E-001,3.305444419384003E-001,
1.158533333333334E+009,2.810966037213802E-002,7.997839152812958E-002,-9.098708629608154E-001,3.717357814311981E-001,2.810966037213802E-002,7.997839152812958E-002,-9.098708629608154E-001,3.717357814311981E-001,
1.166900000000000E+009,4.734378308057785E-002,7.992672920227051E-002,-8.933782577514648E-001,3.918806016445160E-001,4.734378308057785E-002,7.992672920227051E-002,-8.933782577514648E-001,3.918806016445160E-001,
1.175266666666667E+009,6.322824954986572E-002,6.918062269687653E-002,-8.873815536499023E-001,4.204752445220947E-001,6.322824954986572E-002,6.918062269687653E-002,-8.873815536499023E-001,4.204752445220947E-001,
1.183633333333334E+009,7.546512037515640E-002,5.412540584802628E-002,-8.860661983489990E-001,4.343537092208862E-001,7.546512037515640E-002,5.412540584802628E-002,-8.860661983489990E-001,4.343537092208862E-001,
1.192000000000000E+009,7.539466768503189E-002,3.533617407083511E-002,-8.734446763992310E-001,4.563865959644318E-001,7.539466768503189E-002,3.533617407083511E-002,-8.734446763992310E-001,4.563865959644318E-001,
1.200366666666667E+009,6.608359515666962E-002,1.852414943277836E-002,-8.609502315521240E-001,4.788048863410950E-001,6.608359515666962E-002,1.852414943277836E-002,-8.609502315521240E-001,4.788048863410950E-001,
1.208733333333334E+009,5.084657669067383E-002,9.667582809925079E-003,-8.540729284286499E-001,5.204207897186279E-001,5.084657669067383E-002,9.667582809925079E-003,-8.540729284286499E-001,5.204207897186279E-001,
1.217100000000000E+009,3.462813794612885E-002,1.103016547858715E-002,-8.502731323242188E-001,5.298523902893066E-001,3.462813794612885E-002,1.103016547858715E-002,-8.502731323242188E-001,5.298523902893066E-001,
1.225466666666667E+009,2.199324965476990E-002,2.221061103045940E-002,-8.178929686546326E-001,5.544725656509399E-001,2.199324965476990E-002,2.221061103045940E-002,-8.178929686546326E-001,5.544725656509399E-001,
1.233833333333334E+009,1.721455156803131E-002,3.900351747870445E-002,-8.134140968322754E-001,5.662189126014710E-001,1.721455156803131E-002,3.900351747870445E-002,-8.134140968322754E-001,5.662189126014710E-001,
1.242200000000000E+009,2.538205310702324E-002,5.391022562980652E-002,-7.877282500267029E-001,5.997447967529297E-001,2.538205310702324E-002,5.391022562980652E-002,-7.877282500267029E-001,5.997447967529297E-001,
1.250566666666667E+009,3.815920650959015E-002,6.414276361465454E-002,-7.664139866828919E-001,6.053579449653626E-001,3.815920650959015E-002,6.414276361465454E-002,-7.664139866828919E-001,6.053579449653626E-001,
1.258933333333334E+009,5.871951580047607E-002,6.437077373266220E-002,-7.628188133239746E-001,6.280545592308044E-001,5.871951580047607E-002,6.437077373266220E-002,-7.628188133239746E-001,6.280545592308044E-001,
1.267300000000000E+009,7.795459777116776E-002,5.370526015758514E-002,-7.417895197868347E-001,6.433405876159668E-001,7.795459777116776E-002,5.370526015758514E-002,-7.417895197868347E-001,6.433405876159668E-001,
1.275666666666667E+009,8.693205565214157E-002,3.560250625014305E-002,-7.291983962059021E-001,6.500821709632874E-001,8.693205565214157E-002,3.560250625014305E-002,-7.291983962059021E-001,6.500821709632874E-001,
1.284033333333334E+009,8.945003896951675E-002,1.451589539647102E-002,-7.140952944755554E-001,6.929306387901306E-001,8.945003896951675E-002,1.451589539647102E-002,-7.140952944755554E-001,6.929306387901306E-001,
1.292400000000000E+009,7.908726483583450E-002,-4.508592188358307E-003,-7.022706866264343E-001,6.974871754646301E-001,7.908726483583450E-002,-4.508592188358307E-003,-7.022706866264343E-001,6.974871754646301E-001,
1.300766666666667E+009,5.957815796136856E-002,-1.302522514015436E-002,-6.791621446609497E-001,7.209278941154480E-001,5.957815796136856E-002,-1.302522514015436E-002,-6.791621446609497E-001,7.209278941154480E-001,
1.309133333333334E+009,3.930743783712387E-002,-1.167880091816187E-002,-6.539458036422730E-001,7.346314787864685E-001,3.930743783712387E-002,-1.167880091816187E-002,-6.539458036422730E-001,7.346314787864685E-001,
1.317500000000000E+009,2.457664720714092E-002,4.852770944125950E-004,-6.419175863265991E-001,7.652355432510376E-001,2.457664720714092E-002,4.852770944125950E-004,-6.419175863265991E-001,7.652355432510376E-001,
1.325866666666667E+009,1.985794119536877E-002,1.787785999476910E-002,-6.232034564018250E-001,7.818568348884583E-001,1.985794119536877E-002,1.787785999476910E-002,-6.232034564018250E-001,7.818568348884583E-001,
1.334233333333334E+009,2.766524069011211E-002,3.597669303417206E-002,-6.047664880752564E-001,7.872235178947449E-001,2.766524069011211E-002,3.597669303417206E-002,-6.047664880752564E-001,7.872235178947449E-001,
1.342600000000000E+009,4.327725246548653E-002,4.521781578660011E-002,-5.873883962631226E-001,8.040925860404968E-001,4.327725246548653E-002,4.521781578660011E-002,-5.873883962631226E-001,8.040925860404968E-001,
1.350966666666667E+009,6.336240470409393E-002,4.264729097485542E-002,-5.610122084617615E-001,8.164442181587219E-001,6.336240470409393E-002,4.264729097485542E-002,-5.610122084617615E-001,8.164442181587219E-001,
1.359333333333334E+009,7.831171900033951E-002,2.941153571009636E-002,-5.475123524665833E-001,8.164019584655762E-001,7.831171900033951E-002,2.941153571009636E-002,-5.475123524665833E-001,8.164019584655762E-001,
1.367700000000000E+009,8.405866473913193E-002,9.461373090744019E-003,-5.140700340270996E-001,8.356440067291260E-001,8.405866473913193E-002,9.461373090744019E-003,-5.140700340270996E-001,8.356440067291260E-001,
1.376066666666667E+009,8.078695833683014E-002,-1.294837612658739E-002,-4.977605938911438E-001,8.462593555450440E-001,8.078695833683014E-002,-1.294837612658739E-002,-4.977605938911438E-001,8.462593555450440E-001,
1.384433333333334E+009,6.367446482181549E-002,-2.842617221176624E-002,-4.850323200225830E-001,8.764944672584534E-001,6.367446482181549E-002,-2.842617221176624E-002,-4.850323200225830E-001,8.764944672584534E-001,
1.392800000000000E+009,4.292619228363037E-002,-3.102605976164341E-002,-4.622198343276978E-001,8.846732974052429E-001,4.292619228363037E-002,-3.102605976164341E-002,-4.622198343276978E-001,8.846732974052429E-001,
1.401166666666667E+009,2.202133834362030E-002,-2.394548244774342E-002,-4.350069761276245E-001,8.913758397102356E-001,2.202133834362030E-002,-2.394548244774342E-002,-4.350069761276245E-001,8.913758397102356E-001,
1.409533333333334E+009,8.683085441589356E-003,-6.506752222776413E-003,-4.058497846126556E-001,9.063841104507446E-001,8.683085441589356E-003,-6.506752222776413E-003,-4.058497846126556E-001,9.063841104507446E-001,
1.417900000000000E+009,9.219768457114697E-003,1.714252121746540E-002,-3.866147100925446E-001,9.023100137710571E-001,9.219768457114697E-003,1.714252121746540E-002,-3.866147100925446E-001,9.023100137710571E-001,
1.426266666666667E+009,1.959144882857800E-002,3.444072976708412E-002,-3.492274582386017E-001,9.286849498748779E-001,1.959144882857800E-002,3.444072976708412E-002,-3.492274582386017E-001,9.286849498748779E-001,
1.434633333333334E+009,4.007952287793160E-002,4.352542012929916E-002,-3.399870097637177E-001,9.236862659454346E-001,4.007952287793160E-002,4.352542012929916E-002,-3.399870097637177E-001,9.236862659454346E-001,
1.443000000000000E+009,6.076044961810112E-002,4.121439531445503E-002,-3.171890079975128E-001,9.322644472122192E-001,6.076044961810112E-002,4.121439531445503E-002,-3.171890079975128E-001,9.322644472122192E-001,
1.451366666666667E+009,7.707256823778153E-002,2.606351859867573E-002,-2.910828292369843E-001,9.336513280868530E-001,7.707256823778153E-002,2.606351859867573E-002,-2.910828292369843E-001,9.336513280868530E-001,
1.459733333333334E+009,8.374346047639847E-002,6.074554752558470E-003,-2.641277909278870E-001,9.596452713012695E-001,8.374346047639847E-002,6.074554752558470E-003,-2.641277909278870E-001,9.596452713012695E-001,
