% Version 1.00
%
%freq[Hz],re:Trc1_S11,im:Trc1_S11,re:Trc2_S21,im:Trc2_S21,re:Trc3_S11,im:Trc3_S11,re:Trc4_S21,im:Trc4_S21,
6.900000000000000E+008,-4.434140026569367E-002,3.463571518659592E-002,-4.979127645492554E-001,-8.556537032127380E-001,-4.434140026569367E-002,3.463571518659592E-002,-4.979127645492554E-001,-8.556537032127380E-001,
6.983666666666666E+008,-3.625788539648056E-002,3.532860800623894E-002,-5.231609940528870E-001,-8.449984192848206E-001,-3.625788539648056E-002,3.532860800623894E-002,-5.231609940528870E-001,-8.449984192848206E-001,
7.067333333333334E+008,-3.005356714129448E-002,3.097664192318916E-002,-5.459060072898865E-001,-8.193470835685730E-001,-3.005356714129448E-002,3.097664192318916E-002,-5.459060072898865E-001,-8.193470835685730E-001,
7.151000000000000E+008,-2.940925769507885E-002,2.329140529036522E-002,-5.805747509002686E-001,-8.169249296188355E-001,-2.940925769507885E-002,2.329140529036522E-002,-5.805747509002686E-001,-8.169249296188355E-001,
7.234666666666666E+008,-3.111748769879341E-002,1.788861118257046E-002,-5.940141677856445E-001,-8.013746142387390E-001,-3.111748769879341E-002,1.788861118257046E-002,-5.940141677856445E-001,-8.013746142387390E-001,
7.318333333333334E+008,-3.848069533705711E-002,1.519225072115660E-002,-6.111743450164795E-001,-7.844693064689636E-001,-3.848069533705711E-002,1.519225072115660E-002,-6.111743450164795E-001,-7.844693064689636E-001,
7.402000000000000E+008,-4.487530142068863E-002,1.664221473038197E-002,-6.219153404235840E-001,-7.594245076179504E-001,-4.487530142068863E-002,1.664221473038197E-002,-6.219153404235840E-001,-7.594245076179504E-001,
7.485666666666666E+008,-5.054306983947754E-002,2.313224412500858E-002,-6.522018909454346E-001,-7.467314004898071E-001,-5.054306983947754E-002,2.313224412500858E-002,-6.522018909454346E-001,-7.467314004898071E-001,
7.569333333333334E+008,-5.479140207171440E-002,3.256344795227051E-002,-6.707683205604553E-001,-7.333852052688599E-001,-5.479140207171440E-002,3.256344795227051E-002,-6.707683205604553E-001,-7.333852052688599E-001,
7.653000000000000E+008,-4.976218193769455E-002,4.136671498417854E-002,-6.780902147293091E-001,-7.139503955841065E-001,-4.976218193769455E-002,4.136671498417854E-002,-6.780902147293091E-001,-7.139503955841065E-001,
7.736666666666666E+008,-4.367395117878914E-002,4.804842919111252E-002,-6.909819245338440E-001,-7.106100320816040E-001,-4.367395117878914E-002,4.804842919111252E-002,-6.909819245338440E-001,-7.106100320816040E-001,
7.820333333333334E+008,-3.510304912924767E-002,5.220364034175873E-002,-7.249674797058106E-001,-6.823008060455322E-001,-3.510304912924767E-002,5.220364034175873E-002,-7.249674797058106E-001,-6.823008060455322E-001,
7.904000000000000E+008,-2.510442398488522E-002,5.117003992199898E-002,-7.339079380035400E-001,-6.636297106742859E-001,-2.510442398488522E-002,5.117003992199898E-002,-7.339079380035400E-001,-6.636297106742859E-001,
7.987666666666666E+008,-2.066480554640293E-002,4.588980227708817E-002,-7.391886115074158E-001,-6.477947831153870E-001,-2.066480554640293E-002,4.588980227708817E-002,-7.391886115074158E-001,-6.477947831153870E-001,
8.071333333333334E+008,-1.841702684760094E-002,3.930297866463661E-002,-7.659277915954590E-001,-6.160110235214233E-001,-1.841702684760094E-002,3.930297866463661E-002,-7.659277915954590E-001,-6.160110235214233E-001,
8.155000000000000E+008,-2.137140370905399E-002,3.216234967112541E-002,-7.924247980117798E-001,-6.050353646278381E-001,-2.137140370905399E-002,3.216234967112541E-002,-7.924247980117798E-001,-6.050353646278381E-001,
8.238666666666666E+008,-2.811155840754509E-002,2.993028238415718E-002,-7.985731363296509E-001,-5.817509293556213E-001,-2.811155840754509E-002,2.993028238415718E-002,-7.985731363296509E-001,-5.817509293556213E-001,
8.322333333333334E+008,-3.396712243556976E-002,3.106444887816906E-002,-8.078532814979553E-001,-5.639388561248779E-001,-3.396712243556976E-002,3.106444887816906E-002,-8.078532814979553E-001,-5.639388561248779E-001,
8.406000000000000E+008,-3.905227780342102E-002,3.405642136931419E-002,-8.198782205581665E-001,-5.414607524871826E-001,-3.905227780342102E-002,3.405642136931419E-002,-8.198782205581665E-001,-5.414607524871826E-001,
8.489666666666668E+008,-4.108373820781708E-002,4.500532150268555E-002,-8.319427967071533E-001,-5.123039484024048E-001,-4.108373820781708E-002,4.500532150268555E-002,-8.319427967071533E-001,-5.123039484024048E-001,
8.573333333333334E+008,-3.936123847961426E-002,5.271428078413010E-002,-8.339892029762268E-001,-4.820885062217712E-001,-3.936123847961426E-002,5.271428078413010E-002,-8.339892029762268E-001,-4.820885062217712E-001,
8.657000000000000E+008,-3.426277637481690E-002,6.030745431780815E-002,-8.617586493492127E-001,-4.865497350692749E-001,-3.426277637481690E-002,6.030745431780815E-002,-8.617586493492127E-001,-4.865497350692749E-001,
8.740666666666668E+008,-2.530529163777828E-002,6.529490649700165E-002,-8.681578636169434E-001,-4.619278907775879E-001,-2.530529163777828E-002,6.529490649700165E-002,-8.681578636169434E-001,-4.619278907775879E-001,
8.824333333333334E+008,-1.716181635856628E-002,6.665360182523727E-002,-8.864248394966126E-001,-4.374943673610687E-001,-1.716181635856628E-002,6.665360182523727E-002,-8.864248394966126E-001,-4.374943673610687E-001,
8.908000000000000E+008,-9.070766158401966E-003,6.298466771841049E-002,-8.999475836753845E-001,-4.204773902893066E-001,-9.070766158401966E-003,6.298466771841049E-002,-8.999475836753845E-001,-4.204773902893066E-001,
8.991666666666668E+008,-3.655522596091032E-003,5.695838108658791E-002,-9.002379179000855E-001,-3.934214115142822E-001,-3.655522596091032E-003,5.695838108658791E-002,-9.002379179000855E-001,-3.934214115142822E-001,
9.075333333333334E+008,-3.430110868066549E-003,4.926675930619240E-002,-9.144165515899658E-001,-3.681804537773132E-001,-3.430110868066549E-003,4.926675930619240E-002,-9.144165515899658E-001,-3.681804537773132E-001,
9.159000000000000E+008,-6.341675762087107E-003,4.346073791384697E-002,-9.358614087104797E-001,-3.435468077659607E-001,-6.341675762087107E-003,4.346073791384697E-002,-9.358614087104797E-001,-3.435468077659607E-001,
9.242666666666668E+008,-1.335434149950743E-002,4.355531185865402E-002,-9.273689985275269E-001,-3.218688666820526E-001,-1.335434149950743E-002,4.355531185865402E-002,-9.273689985275269E-001,-3.218688666820526E-001,
9.326333333333334E+008,-1.870109140872955E-002,4.568501934409142E-002,-9.436967372894287E-001,-3.081205785274506E-001,-1.870109140872955E-002,4.568501934409142E-002,-9.436967372894287E-001,-3.081205785274506E-001,
9.410000000000000E+008,-2.307706139981747E-002,4.991466924548149E-002,-9.540237784385681E-001,-2.722501456737518E-001,-2.307706139981747E-002,4.991466924548149E-002,-9.540237784385681E-001,-2.722501456737518E-001,
9.493666666666668E+008,-2.489392086863518E-002,5.903303250670433E-002,-9.588479995727539E-001,-2.418221086263657E-001,-2.489392086863518E-002,5.903303250670433E-002,-9.588479995727539E-001,-2.418221086263657E-001,
9.577333333333334E+008,-2.159033156931400E-002,6.857285648584366E-002,-9.651003479957581E-001,-2.282921522855759E-001,-2.159033156931400E-002,6.857285648584366E-002,-9.651003479957581E-001,-2.282921522855759E-001,
9.661000000000000E+008,-1.301639620214701E-002,7.500179111957550E-002,-9.667540192604065E-001,-1.863940358161926E-001,-1.301639620214701E-002,7.500179111957550E-002,-9.667540192604065E-001,-1.863940358161926E-001,
9.744666666666668E+008,-2.450692700222135E-003,7.513576745986939E-002,-9.645805358886719E-001,-1.756470054388046E-001,-2.450692700222135E-003,7.513576745986939E-002,-9.645805358886719E-001,-1.756470054388046E-001,
9.828333333333334E+008,6.517025176435709E-003,7.596088945865631E-002,-9.800199866294861E-001,-1.560316532850266E-001,6.517025176435709E-003,7.596088945865631E-002,-9.800199866294861E-001,-1.560316532850266E-001,
9.912000000000000E+008,1.685339584946632E-002,6.938812881708145E-002,-9.774612188339233E-001,-1.340056955814362E-001,1.685339584946632E-002,6.938812881708145E-002,-9.774612188339233E-001,-1.340056955814362E-001,
9.995666666666668E+008,2.047145739197731E-002,6.158013269305229E-002,-9.902176856994629E-001,-9.691048413515091E-002,2.047145739197731E-002,6.158013269305229E-002,-9.902176856994629E-001,-9.691048413515091E-002,
1.007933333333333E+009,2.392918430268765E-002,5.222398787736893E-002,-1.003753781318665E+000,-7.892263680696487E-002,2.392918430268765E-002,5.222398787736893E-002,-1.003753781318665E+000,-7.892263680696487E-002,
1.016300000000000E+009,1.771883852779865E-002,4.644811525940895E-002,-9.896597862243652E-001,-5.340621247887611E-002,1.771883852779865E-002,4.644811525940895E-002,-9.896597862243652E-001,-5.340621247887611E-002,
1.024666666666667E+009,1.000063586980104E-002,4.282583296298981E-002,-9.856321215629578E-001,-2.720586583018303E-002,1.000063586980104E-002,4.282583296298981E-002,-9.856321215629578E-001,-2.720586583018303E-002,
1.033033333333333E+009,4.858364816755056E-003,4.758283123373985E-002,-9.922583103179932E-001,-1.008176477625966E-003,4.858364816755056E-003,4.758283123373985E-002,-9.922583103179932E-001,-1.008176477625966E-003,
1.041400000000000E+009,-1.966810552403331E-003,5.258756503462791E-002,-9.920955896377564E-001,2.012697607278824E-002,-1.966810552403331E-003,5.258756503462791E-002,-9.920955896377564E-001,2.012697607278824E-002,
1.049766666666667E+009,8.294477011077106E-004,6.201405078172684E-002,-9.780675768852234E-001,5.541424825787544E-002,8.294477011077106E-004,6.201405078172684E-002,-9.780675768852234E-001,5.541424825787544E-002,
1.058133333333333E+009,4.736744333058596E-003,7.077950984239578E-002,-9.798184633255005E-001,7.731278240680695E-002,4.736744333058596E-003,7.077950984239578E-002,-9.798184633255005E-001,7.731278240680695E-002,
1.066500000000000E+009,1.555574126541615E-002,7.472702115774155E-002,-9.947443604469299E-001,1.112708151340485E-001,1.555574126541615E-002,7.472702115774155E-002,-9.947443604469299E-001,1.112708151340485E-001,
1.074866666666667E+009,2.864352054893971E-002,7.323621958494186E-002,-9.886881709098816E-001,1.312775313854218E-001,2.864352054893971E-002,7.323621958494186E-002,-9.886881709098816E-001,1.312775313854218E-001,
1.083233333333334E+009,3.698023781180382E-002,6.500207632780075E-002,-9.724343419075012E-001,1.519665122032166E-001,3.698023781180382E-002,6.500207632780075E-002,-9.724343419075012E-001,1.519665122032166E-001,
1.091600000000000E+009,4.323416575789452E-002,5.437578633427620E-002,-9.550240635871887E-001,1.717756986618042E-001,4.323416575789452E-002,5.437578633427620E-002,-9.550240635871887E-001,1.717756986618042E-001,
1.099966666666667E+009,4.237645491957665E-002,4.102293029427528E-002,-9.507003426551819E-001,2.096606045961380E-001,4.237645491957665E-002,4.102293029427528E-002,-9.507003426551819E-001,2.096606045961380E-001,
1.108333333333334E+009,3.443895280361176E-002,3.318369016051292E-002,-9.504932761192322E-001,2.172925770282745E-001,3.443895280361176E-002,3.318369016051292E-002,-9.504932761192322E-001,2.172925770282745E-001,
1.116700000000000E+009,2.423899620771408E-002,3.006131201982498E-002,-9.437336921691895E-001,2.509148716926575E-001,2.423899620771408E-002,3.006131201982498E-002,-9.437336921691895E-001,2.509148716926575E-001,
1.125066666666667E+009,1.323862560093403E-002,3.476524353027344E-002,-9.444681406021118E-001,2.675899565219879E-001,1.323862560093403E-002,3.476524353027344E-002,-9.444681406021118E-001,2.675899565219879E-001,
1.133433333333334E+009,5.436316598206759E-003,4.465730860829353E-002,-9.421876072883606E-001,3.125393390655518E-001,5.436316598206759E-003,4.465730860829353E-002,-9.421876072883606E-001,3.125393390655518E-001,
1.141800000000000E+009,3.887834958732128E-003,5.810641124844551E-002,-9.195834398269653E-001,3.268792927265167E-001,3.887834958732128E-003,5.810641124844551E-002,-9.195834398269653E-001,3.268792927265167E-001,
1.150166666666667E+009,1.243067346513271E-002,7.238499075174332E-002,-9.110035896301270E-001,3.276448547840118E-001,1.243067346513271E-002,7.238499075174332E-002,-9.110035896301270E-001,3.276448547840118E-001,
1.158533333333334E+009,2.768925949931145E-002,7.945322245359421E-002,-9.040340781211853E-001,3.682520687580109E-001,2.768925949931145E-002,7.945322245359421E-002,-9.040340781211853E-001,3.682520687580109E-001,
1.166900000000000E+009,4.625019803643227E-002,7.950948923826218E-002,-8.876959085464478E-001,3.883920609951019E-001,4.625019803643227E-002,7.950948923826218E-002,-8.876959085464478E-001,3.883920609951019E-001,
1.175266666666667E+009,6.171700358390808E-002,6.876873970031738E-002,-8.823151588439941E-001,4.174232780933380E-001,6.171700358390808E-002,6.876873970031738E-002,-8.823151588439941E-001,4.174232780933380E-001,
1.183633333333334E+009,7.335120439529419E-002,5.407186970114708E-002,-8.808202147483826E-001,4.297121763229370E-001,7.335120439529419E-002,5.407186970114708E-002,-8.808202147483826E-001,4.297121763229370E-001,
1.192000000000000E+009,7.334125041961670E-002,3.537259623408318E-002,-8.681980967521668E-001,4.524036049842835E-001,7.334125041961670E-002,3.537259623408318E-002,-8.681980967521668E-001,4.524036049842835E-001,
1.200366666666667E+009,6.418645381927490E-002,1.892316527664661E-002,-8.553255796432495E-001,4.734370410442352E-001,6.418645381927490E-002,1.892316527664661E-002,-8.553255796432495E-001,4.734370410442352E-001,
1.208733333333334E+009,4.968897998332977E-002,1.018560677766800E-002,-8.486557602882385E-001,5.150066614151001E-001,4.968897998332977E-002,1.018560677766800E-002,-8.486557602882385E-001,5.150066614151001E-001,
1.217100000000000E+009,3.412837535142899E-002,1.148677151650190E-002,-8.448128104209900E-001,5.247499346733093E-001,3.412837535142899E-002,1.148677151650190E-002,-8.448128104209900E-001,5.247499346733093E-001,
1.225466666666667E+009,2.182484976947308E-002,2.230936102569103E-002,-8.129277825355530E-001,5.491721630096436E-001,2.182484976947308E-002,2.230936102569103E-002,-8.129277825355530E-001,5.491721630096436E-001,
1.233833333333334E+009,1.723171211779118E-002,3.891649097204208E-002,-8.082481026649475E-001,5.603953003883362E-001,1.723171211779118E-002,3.891649097204208E-002,-8.082481026649475E-001,5.603953003883362E-001,
1.242200000000000E+009,2.514861710369587E-002,5.347853153944016E-002,-7.835681438446045E-001,5.939466953277588E-001,2.514861710369587E-002,5.347853153944016E-002,-7.835681438446045E-001,5.939466953277588E-001,
1.250566666666667E+009,3.761728480458260E-002,6.386931985616684E-002,-7.622394561767578E-001,5.997027158737183E-001,3.761728480458260E-002,6.386931985616684E-002,-7.622394561767578E-001,5.997027158737183E-001,
1.258933333333334E+009,5.751147866249085E-002,6.435164809226990E-002,-7.569488286972046E-001,6.220168471336365E-001,5.751147866249085E-002,6.435164809226990E-002,-7.569488286972046E-001,6.220168471336365E-001,
1.267300000000000E+009,7.641042768955231E-002,5.406013131141663E-002,-7.385063767433167E-001,6.363397836685181E-001,7.641042768955231E-002,5.406013131141663E-002,-7.385063767433167E-001,6.363397836685181E-001,
1.275666666666667E+009,8.520635217428207E-002,3.631551936268807E-002,-7.259974479675293E-001,6.443318128585815E-001,8.520635217428207E-002,3.631551936268807E-002,-7.259974479675293E-001,6.443318128585815E-001,
1.284033333333334E+009,8.741860091686249E-002,1.536047179251909E-002,-7.098632454872131E-001,6.870546936988831E-001,8.741860091686249E-002,1.536047179251909E-002,-7.098632454872131E-001,6.870546936988831E-001,
1.292400000000000E+009,7.734785228967667E-002,-3.363848431035876E-003,-6.976760625839233E-001,6.902392506599426E-001,7.734785228967667E-002,-3.363848431035876E-003,-6.976760625839233E-001,6.902392506599426E-001,
1.300766666666667E+009,5.839658156037331E-002,-1.210173219442368E-002,-6.754058599472046E-001,7.142768502235413E-001,5.839658156037331E-002,-1.210173219442368E-002,-6.754058599472046E-001,7.142768502235413E-001,
1.309133333333334E+009,3.857121989130974E-002,-1.087604556232691E-002,-6.507421135902405E-001,7.286247014999390E-001,3.857121989130974E-002,-1.087604556232691E-002,-6.507421135902405E-001,7.286247014999390E-001,
1.317500000000000E+009,2.429251559078693E-002,8.260271861217916E-004,-6.383442282676697E-001,7.591232657432556E-001,2.429251559078693E-002,8.260271861217916E-004,-6.383442282676697E-001,7.591232657432556E-001,
1.325866666666667E+009,1.960125938057900E-002,1.777314767241478E-002,-6.190508604049683E-001,7.742868661880493E-001,1.960125938057900E-002,1.777314767241478E-002,-6.190508604049683E-001,7.742868661880493E-001,
1.334233333333334E+009,2.751003950834274E-002,3.568067774176598E-002,-6.007533669471741E-001,7.797819972038269E-001,2.751003950834274E-002,3.568067774176598E-002,-6.007533669471741E-001,7.797819972038269E-001,
1.342600000000000E+009,4.266259819269180E-002,4.516658186912537E-002,-5.837767720222473E-001,7.971914410591126E-001,4.266259819269180E-002,4.516658186912537E-002,-5.837767720222473E-001,7.971914410591126E-001,
1.350966666666667E+009,6.242350861430168E-002,4.299252480268478E-002,-5.574044585227966E-001,8.097240924835205E-001,6.242350861430168E-002,4.299252480268478E-002,-5.574044585227966E-001,8.097240924835205E-001,
1.359333333333334E+009,7.704913616180420E-002,2.999336272478104E-002,-5.443903803825378E-001,8.092166185379028E-001,7.704913616180420E-002,2.999336272478104E-002,-5.443903803825378E-001,8.092166185379028E-001,
1.367700000000000E+009,8.280094712972641E-002,1.064679864794016E-002,-5.108177661895752E-001,8.283981084823608E-001,8.280094712972641E-002,1.064679864794016E-002,-5.108177661895752E-001,8.283981084823608E-001,
1.376066666666667E+009,7.903452217578888E-002,-1.128109265118837E-002,-4.956180155277252E-001,8.379694819450378E-001,7.903452217578888E-002,-1.128109265118837E-002,-4.956180155277252E-001,8.379694819450378E-001,
1.384433333333334E+009,6.215649098157883E-002,-2.683363296091557E-002,-4.803892076015472E-001,8.685398697853088E-001,6.215649098157883E-002,-2.683363296091557E-002,-4.803892076015472E-001,8.685398697853088E-001,
1.392800000000000E+009,4.170855879783630E-002,-2.974265068769455E-002,-4.592225849628449E-001,8.763473629951477E-001,4.170855879783630E-002,-2.974265068769455E-002,-4.592225849628449E-001,8.763473629951477E-001,
1.401166666666667E+009,2.135490067303181E-002,-2.296245284378529E-002,-4.326103329658508E-001,8.834284543991089E-001,2.135490067303181E-002,-2.296245284378529E-002,-4.326103329658508E-001,8.834284543991089E-001,
1.409533333333334E+009,8.113315328955650E-003,-5.938522517681122E-003,-4.035860598087311E-001,8.979931473731995E-001,8.113315328955650E-003,-5.938522517681122E-003,-4.035860598087311E-001,8.979931473731995E-001,
1.417900000000000E+009,8.625960908830166E-003,1.714038103818893E-002,-3.846141695976257E-001,8.935625553131104E-001,8.625960908830166E-003,1.714038103818893E-002,-3.846141695976257E-001,8.935625553131104E-001,
1.426266666666667E+009,1.914939843118191E-002,3.432796895503998E-002,-3.482842445373535E-001,9.203990101814270E-001,1.914939843118191E-002,3.432796895503998E-002,-3.482842445373535E-001,9.203990101814270E-001,
1.434633333333334E+009,3.954654932022095E-002,4.343488812446594E-002,-3.390830457210541E-001,9.146914482116699E-001,3.954654932022095E-002,4.343488812446594E-002,-3.390830457210541E-001,9.146914482116699E-001,
1.443000000000000E+009,6.006790325045586E-002,4.159012809395790E-002,-3.148932158946991E-001,9.226920604705811E-001,6.006790325045586E-002,4.159012809395790E-002,-3.148932158946991E-001,9.226920604705811E-001,
1.451366666666667E+009,7.624127715826035E-002,2.691358700394630E-002,-2.890836596488953E-001,9.235216975212097E-001,7.624127715826035E-002,2.691358700394630E-002,-2.890836596488953E-001,9.235216975212097E-001,
1.459733333333334E+009,8.311227709054947E-002,7.264061365276575E-003,-2.637659609317780E-001,9.504195451736450E-001,8.311227709054947E-002,7.264061365276575E-003,-2.637659609317780E-001,9.504195451736450E-001,
