% Version 1.00
%
%freq[Hz],re:Trc1_S11,im:Trc1_S11,re:Trc2_S21,im:Trc2_S21,re:Trc3_S11,im:Trc3_S11,re:Trc4_S21,im:Trc4_S21,
6.900000000000000E+008,-5.672592669725418E-002,2.605929505079985E-003,-4.641248583793640E-001,-8.464547395706177E-001,-5.672592669725418E-002,2.605929505079985E-003,-4.641248583793640E-001,-8.464547395706177E-001,
6.983666666666666E+008,-4.865455627441406E-002,4.259570501744747E-003,-4.906476140022278E-001,-8.400775194168091E-001,-4.865455627441406E-002,4.259570501744747E-003,-4.906476140022278E-001,-8.400775194168091E-001,
7.067333333333334E+008,-4.315219819545746E-002,1.033630105666816E-003,-5.129809379577637E-001,-8.145709037780762E-001,-4.315219819545746E-002,1.033630105666816E-003,-5.129809379577637E-001,-8.145709037780762E-001,
7.151000000000000E+008,-4.256941005587578E-002,-5.640028044581413E-003,-5.447604060173035E-001,-8.117629289627075E-001,-4.256941005587578E-002,-5.640028044581413E-003,-5.447604060173035E-001,-8.117629289627075E-001,
7.234666666666666E+008,-4.467662796378136E-002,-1.108361687511206E-002,-5.624731183052063E-001,-7.972100377082825E-001,-4.467662796378136E-002,-1.108361687511206E-002,-5.624731183052063E-001,-7.972100377082825E-001,
7.318333333333334E+008,-5.179687216877937E-002,-1.312202215194702E-002,-5.741106271743774E-001,-7.838011384010315E-001,-5.179687216877937E-002,-1.312202215194702E-002,-5.741106271743774E-001,-7.838011384010315E-001,
7.402000000000000E+008,-5.847543478012085E-002,-1.142970658838749E-002,-5.896897912025452E-001,-7.584630846977234E-001,-5.847543478012085E-002,-1.142970658838749E-002,-5.896897912025452E-001,-7.584630846977234E-001,
7.485666666666666E+008,-6.454046815633774E-002,-4.412387963384390E-003,-6.219779253005981E-001,-7.427851557731628E-001,-6.454046815633774E-002,-4.412387963384390E-003,-6.219779253005981E-001,-7.427851557731628E-001,
7.569333333333334E+008,-6.890184432268143E-002,4.769029095768929E-003,-6.415578722953796E-001,-7.329219579696655E-001,-6.890184432268143E-002,4.769029095768929E-003,-6.415578722953796E-001,-7.329219579696655E-001,
7.653000000000000E+008,-6.329783052206039E-002,1.417396869510412E-002,-6.443688869476318E-001,-7.154982089996338E-001,-6.329783052206039E-002,1.417396869510412E-002,-6.443688869476318E-001,-7.154982089996338E-001,
7.736666666666666E+008,-5.807297676801682E-002,2.087252959609032E-002,-6.573863625526428E-001,-7.106447815895081E-001,-5.807297676801682E-002,2.087252959609032E-002,-6.573863625526428E-001,-7.106447815895081E-001,
7.820333333333334E+008,-5.037603899836540E-002,2.574186958372593E-002,-6.908854246139526E-001,-6.842700839042664E-001,-5.037603899836540E-002,2.574186958372593E-002,-6.908854246139526E-001,-6.842700839042664E-001,
7.904000000000000E+008,-4.066438972949982E-002,2.580797486007214E-002,-7.034282684326172E-001,-6.690430641174316E-001,-4.066438972949982E-002,2.580797486007214E-002,-7.034282684326172E-001,-6.690430641174316E-001,
7.987666666666666E+008,-3.688868880271912E-002,2.163559943437576E-002,-7.118665575981140E-001,-6.547196507453919E-001,-3.688868880271912E-002,2.163559943437576E-002,-7.118665575981140E-001,-6.547196507453919E-001,
8.071333333333334E+008,-3.449029847979546E-002,1.493523456156254E-002,-7.352471351623535E-001,-6.210210919380188E-001,-3.449029847979546E-002,1.493523456156254E-002,-7.352471351623535E-001,-6.210210919380188E-001,
8.155000000000000E+008,-3.689393028616905E-002,9.202792309224606E-003,-7.615861296653748E-001,-6.111800670623779E-001,-3.689393028616905E-002,9.202792309224606E-003,-7.615861296653748E-001,-6.111800670623779E-001,
8.238666666666666E+008,-4.398347064852715E-002,7.519352715462446E-003,-7.706468701362610E-001,-5.884574055671692E-001,-4.398347064852715E-002,7.519352715462446E-003,-7.706468701362610E-001,-5.884574055671692E-001,
8.322333333333334E+008,-4.948331788182259E-002,8.940115571022034E-003,-7.782784700393677E-001,-5.704229474067688E-001,-4.948331788182259E-002,8.940115571022034E-003,-7.782784700393677E-001,-5.704229474067688E-001,
8.406000000000000E+008,-5.416988208889961E-002,1.176072750240564E-002,-7.927082180976868E-001,-5.510324239730835E-001,-5.416988208889961E-002,1.176072750240564E-002,-7.927082180976868E-001,-5.510324239730835E-001,
8.489666666666668E+008,-5.676921829581261E-002,2.283152006566525E-002,-8.039444684982300E-001,-5.228164196014404E-001,-5.676921829581261E-002,2.283152006566525E-002,-8.039444684982300E-001,-5.228164196014404E-001,
8.573333333333334E+008,-5.524442344903946E-002,3.029722161591053E-002,-8.072540760040283E-001,-4.954309463500977E-001,-5.524442344903946E-002,3.029722161591053E-002,-8.072540760040283E-001,-4.954309463500977E-001,
8.657000000000000E+008,-5.091987922787666E-002,3.873158246278763E-002,-8.416142463684082E-001,-4.970415532588959E-001,-5.091987922787666E-002,3.873158246278763E-002,-8.416142463684082E-001,-4.970415532588959E-001,
8.740666666666668E+008,-4.245433583855629E-002,4.448963701725006E-002,-8.403875827789307E-001,-4.743137955665588E-001,-4.245433583855629E-002,4.448963701725006E-002,-8.403875827789307E-001,-4.743137955665588E-001,
8.824333333333334E+008,-3.488445654511452E-002,4.644947499036789E-002,-8.608226180076599E-001,-4.501032233238220E-001,-3.488445654511452E-002,4.644947499036789E-002,-8.608226180076599E-001,-4.501032233238220E-001,
8.908000000000000E+008,-2.706217393279076E-002,4.377928003668785E-002,-8.751779198646545E-001,-4.326920807361603E-001,-2.706217393279076E-002,4.377928003668785E-002,-8.751779198646545E-001,-4.326920807361603E-001,
8.991666666666668E+008,-2.173570729792118E-002,3.888583183288574E-002,-8.750068545341492E-001,-4.068025350570679E-001,-2.173570729792118E-002,3.888583183288574E-002,-8.750068545341492E-001,-4.068025350570679E-001,
9.075333333333334E+008,-2.135544270277023E-002,3.243786841630936E-002,-8.910047411918640E-001,-3.819304704666138E-001,-2.135544270277023E-002,3.243786841630936E-002,-8.910047411918640E-001,-3.819304704666138E-001,
9.159000000000000E+008,-2.322301268577576E-002,2.658621780574322E-002,-9.140439033508301E-001,-3.588449358940125E-001,-2.322301268577576E-002,2.658621780574322E-002,-9.140439033508301E-001,-3.588449358940125E-001,
9.242666666666668E+008,-3.030726686120033E-002,2.654043398797512E-002,-9.056181907653809E-001,-3.355315029621124E-001,-3.030726686120033E-002,2.654043398797512E-002,-9.056181907653809E-001,-3.355315029621124E-001,
9.326333333333334E+008,-3.567522391676903E-002,2.885830961167812E-002,-9.226837158203125E-001,-3.224838972091675E-001,-3.567522391676903E-002,2.885830961167812E-002,-9.226837158203125E-001,-3.224838972091675E-001,
9.410000000000000E+008,-3.969621285796166E-002,3.253155201673508E-002,-9.302402138710022E-001,-2.882996201515198E-001,-3.969621285796166E-002,3.253155201673508E-002,-9.302402138710022E-001,-2.882996201515198E-001,
9.493666666666668E+008,-4.179606959223747E-002,4.218506067991257E-002,-9.386351108551025E-001,-2.592590749263763E-001,-4.179606959223747E-002,4.218506067991257E-002,-9.386351108551025E-001,-2.592590749263763E-001,
9.577333333333334E+008,-3.975265100598335E-002,5.169133469462395E-002,-9.437144398689270E-001,-2.438532114028931E-001,-3.975265100598335E-002,5.169133469462395E-002,-9.437144398689270E-001,-2.438532114028931E-001,
9.661000000000000E+008,-3.141717240214348E-002,5.880147963762283E-002,-9.470437765121460E-001,-2.075270414352417E-001,-3.141717240214348E-002,5.880147963762283E-002,-9.470437765121460E-001,-2.075270414352417E-001,
9.744666666666668E+008,-2.068402804434300E-002,6.030932441353798E-002,-9.459032416343689E-001,-1.960485279560089E-001,-2.068402804434300E-002,6.030932441353798E-002,-9.459032416343689E-001,-1.960485279560089E-001,
9.828333333333334E+008,-1.184987928718329E-002,6.132353097200394E-002,-9.616726040840149E-001,-1.745595633983612E-001,-1.184987928718329E-002,6.132353097200394E-002,-9.616726040840149E-001,-1.745595633983612E-001,
9.912000000000000E+008,-1.037621172145009E-003,5.629178881645203E-002,-9.598412513732910E-001,-1.553958058357239E-001,-1.037621172145009E-003,5.629178881645203E-002,-9.598412513732910E-001,-1.553958058357239E-001,
9.995666666666668E+008,3.005632665008307E-003,4.953730478882790E-002,-9.741725325584412E-001,-1.194809898734093E-001,3.005632665008307E-003,4.953730478882790E-002,-9.741725325584412E-001,-1.194809898734093E-001,
1.007933333333333E+009,6.915582809597254E-003,4.092528671026230E-002,-9.881128072738648E-001,-1.003500223159790E-001,6.915582809597254E-003,4.092528671026230E-002,-9.881128072738648E-001,-1.003500223159790E-001,
1.016300000000000E+009,8.593727252446115E-004,3.520097583532333E-002,-9.754952192306519E-001,-7.370443642139435E-002,8.593727252446115E-004,3.520097583532333E-002,-9.754952192306519E-001,-7.370443642139435E-002,
1.024666666666667E+009,-6.786380894482136E-003,3.110283613204956E-002,-9.746016263961792E-001,-4.993849247694016E-002,-6.786380894482136E-003,3.110283613204956E-002,-9.746016263961792E-001,-4.993849247694016E-002,
1.033033333333333E+009,-1.198318134993315E-002,3.573865815997124E-002,-9.827219247817993E-001,-2.005101367831230E-002,-1.198318134993315E-002,3.573865815997124E-002,-9.827219247817993E-001,-2.005101367831230E-002,
1.041400000000000E+009,-1.903932727873325E-002,4.030924290418625E-002,-9.820158481597900E-001,-4.456670954823494E-003,-1.903932727873325E-002,4.030924290418625E-002,-9.820158481597900E-001,-4.456670954823494E-003,
1.049766666666667E+009,-1.684091426432133E-002,5.028557404875755E-002,-9.742949604988098E-001,3.323562443256378E-002,-1.684091426432133E-002,5.028557404875755E-002,-9.742949604988098E-001,3.323562443256378E-002,
1.058133333333333E+009,-1.284536160528660E-002,5.920332297682762E-002,-9.719010591506958E-001,5.389681831002235E-002,-1.284536160528660E-002,5.920332297682762E-002,-9.719010591506958E-001,5.389681831002235E-002,
1.066500000000000E+009,-1.969813834875822E-003,6.408280134201050E-002,-9.899463057518005E-001,8.652302622795105E-002,-1.969813834875822E-003,6.408280134201050E-002,-9.899463057518005E-001,8.652302622795105E-002,
1.074866666666667E+009,1.131227426230907E-002,6.386606395244598E-002,-9.824434518814087E-001,1.085887178778648E-001,1.131227426230907E-002,6.386606395244598E-002,-9.824434518814087E-001,1.085887178778648E-001,
1.083233333333334E+009,2.087542042136192E-002,5.656723305583000E-002,-9.712584018707275E-001,1.268518120050430E-001,2.087542042136192E-002,5.656723305583000E-002,-9.712584018707275E-001,1.268518120050430E-001,
1.091600000000000E+009,2.796708978712559E-002,4.675131291151047E-002,-9.512090086936951E-001,1.487567871809006E-001,2.796708978712559E-002,4.675131291151047E-002,-9.512090086936951E-001,1.487567871809006E-001,
1.099966666666667E+009,2.803230844438076E-002,3.345622122287750E-002,-9.476113319396973E-001,1.875825673341751E-001,2.803230844438076E-002,3.345622122287750E-002,-9.476113319396973E-001,1.875825673341751E-001,
1.108333333333334E+009,2.050593309104443E-002,2.532389201223850E-002,-9.462954401969910E-001,1.943028718233109E-001,2.050593309104443E-002,2.532389201223850E-002,-9.462954401969910E-001,1.943028718233109E-001,
1.116700000000000E+009,1.042691618204117E-002,2.201115712523460E-002,-9.426773786544800E-001,2.276137918233872E-001,1.042691618204117E-002,2.201115712523460E-002,-9.426773786544800E-001,2.276137918233872E-001,
1.125066666666667E+009,-9.141682530753315E-004,2.591530792415142E-002,-9.434610605239868E-001,2.453900873661041E-001,-9.141682530753315E-004,2.591530792415142E-002,-9.434610605239868E-001,2.453900873661041E-001,
1.133433333333334E+009,-9.366273880004883E-003,3.530397266149521E-002,-9.434175491333008E-001,2.894425392150879E-001,-9.366273880004883E-003,3.530397266149521E-002,-9.434175491333008E-001,2.894425392150879E-001,
1.141800000000000E+009,-1.136803720146418E-002,4.822456836700440E-002,-9.202209711074829E-001,2.992728650569916E-001,-1.136803720146418E-002,4.822456836700440E-002,-9.202209711074829E-001,2.992728650569916E-001,
1.150166666666667E+009,-3.150621429085732E-003,6.317204236984253E-002,-9.118515849113464E-001,3.050326108932495E-001,-3.150621429085732E-003,6.317204236984253E-002,-9.118515849113464E-001,3.050326108932495E-001,
1.158533333333334E+009,1.159874442964792E-002,7.123244553804398E-002,-9.063009023666382E-001,3.476955592632294E-001,1.159874442964792E-002,7.123244553804398E-002,-9.063009023666382E-001,3.476955592632294E-001,
1.166900000000000E+009,2.997228689491749E-002,7.219992578029633E-002,-8.915713429450989E-001,3.649588823318481E-001,2.997228689491749E-002,7.219992578029633E-002,-8.915713429450989E-001,3.649588823318481E-001,
1.175266666666667E+009,4.679814353585243E-002,6.206168234348297E-002,-8.855548501014710E-001,3.973536491394043E-001,4.679814353585243E-002,6.206168234348297E-002,-8.855548501014710E-001,3.973536491394043E-001,
1.183633333333334E+009,5.956262350082398E-002,4.809045046567917E-002,-8.845942616462708E-001,4.096215963363648E-001,5.956262350082398E-002,4.809045046567917E-002,-8.845942616462708E-001,4.096215963363648E-001,
1.192000000000000E+009,6.046906858682632E-002,3.019142709672451E-002,-8.720666170120239E-001,4.311295449733734E-001,6.046906858682632E-002,3.019142709672451E-002,-8.720666170120239E-001,4.311295449733734E-001,
1.200366666666667E+009,5.273523554205895E-002,1.328640151768923E-002,-8.611671924591065E-001,4.531533718109131E-001,5.273523554205895E-002,1.328640151768923E-002,-8.611671924591065E-001,4.531533718109131E-001,
1.208733333333334E+009,3.807384893298149E-002,4.294594749808312E-003,-8.566254973411560E-001,4.942817687988281E-001,3.807384893298149E-002,4.294594749808312E-003,-8.566254973411560E-001,4.942817687988281E-001,
1.217100000000000E+009,2.256370522081852E-002,5.277351010590792E-003,-8.510395884513855E-001,5.020475983619690E-001,2.256370522081852E-002,5.277351010590792E-003,-8.510395884513855E-001,5.020475983619690E-001,
1.225466666666667E+009,9.752796031534672E-003,1.542979199439287E-002,-8.203206658363342E-001,5.309752225875855E-001,9.752796031534672E-003,1.542979199439287E-002,-8.203206658363342E-001,5.309752225875855E-001,
1.233833333333334E+009,4.603589884936810E-003,3.178864717483521E-002,-8.158895969390869E-001,5.401654243469238E-001,4.603589884936810E-003,3.178864717483521E-002,-8.158895969390869E-001,5.401654243469238E-001,
1.242200000000000E+009,1.208722032606602E-002,4.607936367392540E-002,-7.914825081825256E-001,5.723837018013001E-001,1.208722032606602E-002,4.607936367392540E-002,-7.914825081825256E-001,5.723837018013001E-001,
1.250566666666667E+009,2.374241687357426E-002,5.700521916151047E-002,-7.713293433189392E-001,5.802512168884277E-001,2.374241687357426E-002,5.700521916151047E-002,-7.713293433189392E-001,5.802512168884277E-001,
1.258933333333334E+009,4.468902200460434E-002,5.794884264469147E-002,-7.683893442153931E-001,6.037181019783020E-001,4.468902200460434E-002,5.794884264469147E-002,-7.683893442153931E-001,6.037181019783020E-001,
1.267300000000000E+009,6.335984915494919E-002,4.854115843772888E-002,-7.486503124237061E-001,6.188208460807800E-001,6.335984915494919E-002,4.854115843772888E-002,-7.486503124237061E-001,6.188208460807800E-001,
1.275666666666667E+009,7.354352623224258E-002,3.042680397629738E-002,-7.354004383087158E-001,6.258349418640137E-001,7.354352623224258E-002,3.042680397629738E-002,-7.354004383087158E-001,6.258349418640137E-001,
1.284033333333334E+009,7.700733095407486E-002,9.782069362699986E-003,-7.205471396446228E-001,6.707800030708313E-001,7.700733095407486E-002,9.782069362699986E-003,-7.205471396446228E-001,6.707800030708313E-001,
1.292400000000000E+009,6.747314333915710E-002,-9.937406517565250E-003,-7.081100344657898E-001,6.769292950630188E-001,6.747314333915710E-002,-9.937406517565250E-003,-7.081100344657898E-001,6.769292950630188E-001,
1.300766666666667E+009,4.890158772468567E-002,-1.898736320436001E-002,-6.857002973556519E-001,6.996296048164368E-001,4.890158772468567E-002,-1.898736320436001E-002,-6.857002973556519E-001,6.996296048164368E-001,
1.309133333333334E+009,2.902649901807308E-002,-1.795078441500664E-002,-6.644462943077087E-001,7.101938724517822E-001,2.902649901807308E-002,-1.795078441500664E-002,-6.644462943077087E-001,7.101938724517822E-001,
1.317500000000000E+009,1.391568128019571E-002,-6.676911842077971E-003,-6.502626538276672E-001,7.420769333839417E-001,1.391568128019571E-002,-6.676911842077971E-003,-6.502626538276672E-001,7.420769333839417E-001,
1.325866666666667E+009,8.715881966054440E-003,9.583530016243458E-003,-6.267936229705811E-001,7.595450282096863E-001,8.715881966054440E-003,9.583530016243458E-003,-6.267936229705811E-001,7.595450282096863E-001,
1.334233333333334E+009,1.527680177241564E-002,2.763757668435574E-002,-6.139395236968994E-001,7.656052708625794E-001,1.527680177241564E-002,2.763757668435574E-002,-6.139395236968994E-001,7.656052708625794E-001,
1.342600000000000E+009,3.035633824765682E-002,3.837825357913971E-002,-5.973765254020691E-001,7.812396883964539E-001,3.035633824765682E-002,3.837825357913971E-002,-5.973765254020691E-001,7.812396883964539E-001,
1.350966666666667E+009,4.957090318202972E-002,3.621517121791840E-002,-5.718350410461426E-001,7.951737642288208E-001,4.957090318202972E-002,3.621517121791840E-002,-5.718350410461426E-001,7.951737642288208E-001,
1.359333333333334E+009,6.491801142692566E-002,2.318717353045940E-002,-5.602366924285889E-001,7.990692257881165E-001,6.491801142692566E-002,2.318717353045940E-002,-5.602366924285889E-001,7.990692257881165E-001,
1.367700000000000E+009,7.139221578836441E-002,4.043420311063528E-003,-5.272762179374695E-001,8.172831535339356E-001,7.139221578836441E-002,4.043420311063528E-003,-5.272762179374695E-001,8.172831535339356E-001,
1.376066666666667E+009,6.845760345458984E-002,-1.784305088222027E-002,-5.110833048820496E-001,8.246766328811646E-001,6.845760345458984E-002,-1.784305088222027E-002,-5.110833048820496E-001,8.246766328811646E-001,
1.384433333333334E+009,5.256782099604607E-002,-3.450231999158859E-002,-4.943349361419678E-001,8.577952384948731E-001,5.256782099604607E-002,-3.450231999158859E-002,-4.943349361419678E-001,8.577952384948731E-001,
1.392800000000000E+009,3.247814252972603E-002,-3.738785162568092E-002,-4.745676517486572E-001,8.646870851516724E-001,3.247814252972603E-002,-3.738785162568092E-002,-4.745676517486572E-001,8.646870851516724E-001,
1.401166666666667E+009,1.187860686331987E-002,-3.148812800645828E-002,-4.482311308383942E-001,8.736820220947266E-001,1.187860686331987E-002,-3.148812800645828E-002,-4.482311308383942E-001,8.736820220947266E-001,
1.409533333333334E+009,-2.131438115611672E-003,-1.420676056295633E-002,-4.194630086421967E-001,8.900755643844605E-001,-2.131438115611672E-003,-1.420676056295633E-002,-4.194630086421967E-001,8.900755643844605E-001,
1.417900000000000E+009,-2.291098004207015E-003,8.837620727717876E-003,-4.008082449436188E-001,8.847205042839050E-001,-2.291098004207015E-003,8.837620727717876E-003,-4.008082449436188E-001,8.847205042839050E-001,
1.426266666666667E+009,7.603881880640984E-003,2.656817249953747E-002,-3.648252487182617E-001,9.148482084274292E-001,7.603881880640984E-003,2.656817249953747E-002,-3.648252487182617E-001,9.148482084274292E-001,
1.434633333333334E+009,2.697969973087311E-002,3.591151162981987E-002,-3.565643429756165E-001,9.077222943305969E-001,2.697969973087311E-002,3.591151162981987E-002,-3.565643429756165E-001,9.077222943305969E-001,
1.443000000000000E+009,4.687229171395302E-002,3.440023958683014E-002,-3.326098322868347E-001,9.177895784378052E-001,4.687229171395302E-002,3.440023958683014E-002,-3.326098322868347E-001,9.177895784378052E-001,
1.451366666666667E+009,6.320850551128388E-002,1.972614042460918E-002,-3.058241009712219E-001,9.179069399833679E-001,6.320850551128388E-002,1.972614042460918E-002,-3.058241009712219E-001,9.179069399833679E-001,
1.459733333333334E+009,7.043166458606720E-002,-1.432766730431467E-004,-2.817492485046387E-001,9.457563161849976E-001,7.043166458606720E-002,-1.432766730431467E-004,-2.817492485046387E-001,9.457563161849976E-001,
