% Version 1.00
%
%freq[Hz],re:Trc1_S11,im:Trc1_S11,re:Trc2_S21,im:Trc2_S21,re:Trc3_S11,im:Trc3_S11,re:Trc4_S21,im:Trc4_S21,
6.900000000000000E+008,-1.558252703398466E-002,1.883915252983570E-002,-4.730349183082581E-001,-8.745924234390259E-001,-1.558252703398466E-002,1.883915252983570E-002,-4.730349183082581E-001,-8.745924234390259E-001,
6.983666666666666E+008,-7.531698793172836E-003,1.878855936229229E-002,-4.978574514389038E-001,-8.644818663597107E-001,-7.531698793172836E-003,1.878855936229229E-002,-4.978574514389038E-001,-8.644818663597107E-001,
7.067333333333334E+008,-9.792566997930408E-004,1.362350303679705E-002,-5.212559103965759E-001,-8.394414186477661E-001,-9.792566997930408E-004,1.362350303679705E-002,-5.212559103965759E-001,-8.394414186477661E-001,
7.151000000000000E+008,-4.259718116372824E-004,4.625896457582712E-003,-5.555430650711060E-001,-8.384222388267517E-001,-4.259718116372824E-004,4.625896457582712E-003,-5.555430650711060E-001,-8.384222388267517E-001,
7.234666666666666E+008,-1.836227253079414E-003,-1.774351811036468E-003,-5.694569945335388E-001,-8.236732482910156E-001,-1.836227253079414E-003,-1.774351811036468E-003,-5.694569945335388E-001,-8.236732482910156E-001,
7.318333333333334E+008,-9.486705996096134E-003,-5.429902113974094E-003,-5.870355367660523E-001,-8.083756566047669E-001,-9.486705996096134E-003,-5.429902113974094E-003,-5.870355367660523E-001,-8.083756566047669E-001,
7.402000000000000E+008,-1.641826890408993E-002,-5.302441772073507E-003,-5.980852842330933E-001,-7.842499017715454E-001,-1.641826890408993E-002,-5.302441772073507E-003,-5.980852842330933E-001,-7.842499017715454E-001,
7.485666666666666E+008,-2.240873314440250E-002,2.164101533708163E-005,-6.288226246833801E-001,-7.723734378814697E-001,-2.240873314440250E-002,2.164101533708163E-005,-6.288226246833801E-001,-7.723734378814697E-001,
7.569333333333334E+008,-2.715585380792618E-002,8.400472812354565E-003,-6.472697257995606E-001,-7.601720094680786E-001,-2.715585380792618E-002,8.400472812354565E-003,-6.472697257995606E-001,-7.601720094680786E-001,
7.653000000000000E+008,-2.295209839940071E-002,1.650670357048512E-002,-6.565078496932983E-001,-7.407884597778320E-001,-2.295209839940071E-002,1.650670357048512E-002,-6.565078496932983E-001,-7.407884597778320E-001,
7.736666666666666E+008,-1.729159802198410E-002,2.237490192055702E-002,-6.689659357070923E-001,-7.382904887199402E-001,-1.729159802198410E-002,2.237490192055702E-002,-6.689659357070923E-001,-7.382904887199402E-001,
7.820333333333334E+008,-9.138420224189758E-003,2.574869617819786E-002,-7.042221426963806E-001,-7.106424570083618E-001,-9.138420224189758E-003,2.574869617819786E-002,-7.042221426963806E-001,-7.106424570083618E-001,
7.904000000000000E+008,5.823323153890669E-004,2.410667017102242E-002,-7.130366563796997E-001,-6.916728019714356E-001,5.823323153890669E-004,2.410667017102242E-002,-7.130366563796997E-001,-6.916728019714356E-001,
7.987666666666666E+008,4.637639969587326E-003,1.778991147875786E-002,-7.204042077064514E-001,-6.768909692764282E-001,4.637639969587326E-003,1.778991147875786E-002,-7.204042077064514E-001,-6.768909692764282E-001,
8.071333333333334E+008,7.554884068667889E-003,1.047138683497906E-002,-7.462766170501709E-001,-6.469484567642212E-001,7.554884068667889E-003,1.047138683497906E-002,-7.462766170501709E-001,-6.469484567642212E-001,
8.155000000000000E+008,3.957767039537430E-003,2.661072183400393E-003,-7.730453014373779E-001,-6.371453404426575E-001,3.957767039537430E-003,2.661072183400393E-003,-7.730453014373779E-001,-6.371453404426575E-001,
8.238666666666666E+008,-2.762757940217853E-003,-7.878217729739845E-004,-7.798748612403870E-001,-6.143538355827332E-001,-2.762757940217853E-003,-7.878217729739845E-004,-7.798748612403870E-001,-6.143538355827332E-001,
8.322333333333334E+008,-9.315066970884800E-003,-9.502383181825280E-004,-7.902033925056458E-001,-5.978775620460510E-001,-9.315066970884800E-003,-9.502383181825280E-004,-7.902033925056458E-001,-5.978775620460510E-001,
8.406000000000000E+008,-1.496952958405018E-002,8.995005046017468E-004,-8.031484484672546E-001,-5.765077471733093E-001,-1.496952958405018E-002,8.995005046017468E-004,-8.031484484672546E-001,-5.765077471733093E-001,
8.489666666666668E+008,-1.823318749666214E-002,1.038749981671572E-002,-8.163745999336243E-001,-5.475782155990601E-001,-1.823318749666214E-002,1.038749981671572E-002,-8.163745999336243E-001,-5.475782155990601E-001,
8.573333333333334E+008,-1.794944144785404E-002,1.722098514437676E-002,-8.203616142272949E-001,-5.177360773086548E-001,-1.794944144785404E-002,1.722098514437676E-002,-8.203616142272949E-001,-5.177360773086548E-001,
8.657000000000000E+008,-1.409213710576296E-002,2.457846328616142E-002,-8.493058085441589E-001,-5.234103202819824E-001,-1.409213710576296E-002,2.457846328616142E-002,-8.493058085441589E-001,-5.234103202819824E-001,
8.740666666666668E+008,-6.428184919059277E-003,2.906970493495464E-002,-8.555401563644409E-001,-4.983609318733215E-001,-6.428184919059277E-003,2.906970493495464E-002,-8.555401563644409E-001,-4.983609318733215E-001,
8.824333333333334E+008,1.214851974509656E-003,2.999226376414299E-002,-8.750525712966919E-001,-4.746043682098389E-001,1.214851974509656E-003,2.999226376414299E-002,-8.750525712966919E-001,-4.746043682098389E-001,
8.908000000000000E+008,8.840734139084816E-003,2.599965967237949E-002,-8.896288871765137E-001,-4.584160447120667E-001,8.840734139084816E-003,2.599965967237949E-002,-8.896288871765137E-001,-4.584160447120667E-001,
8.991666666666668E+008,1.381428353488445E-002,1.970542222261429E-002,-8.903092741966248E-001,-4.318129420280457E-001,1.381428353488445E-002,1.970542222261429E-002,-8.903092741966248E-001,-4.318129420280457E-001,
9.075333333333334E+008,1.374019775539637E-002,1.054501254111528E-002,-9.042947292327881E-001,-4.067482352256775E-001,1.374019775539637E-002,1.054501254111528E-002,-9.042947292327881E-001,-4.067482352256775E-001,
9.159000000000000E+008,1.138682384043932E-002,3.965455107390881E-003,-9.271121025085449E-001,-3.830372691154480E-001,1.138682384043932E-002,3.965455107390881E-003,-9.271121025085449E-001,-3.830372691154480E-001,
9.242666666666668E+008,3.837555414065719E-003,2.684836043044925E-003,-9.191427826881409E-001,-3.609857857227325E-001,3.837555414065719E-003,2.684836043044925E-003,-9.191427826881409E-001,-3.609857857227325E-001,
9.326333333333334E+008,-2.221413888037205E-003,3.407598473131657E-003,-9.351552724838257E-001,-3.475888669490814E-001,-2.221413888037205E-003,3.407598473131657E-003,-9.351552724838257E-001,-3.475888669490814E-001,
9.410000000000000E+008,-8.174873888492584E-003,6.391952745616436E-003,-9.472214579582214E-001,-3.142411708831787E-001,-8.174873888492584E-003,6.391952745616436E-003,-9.472214579582214E-001,-3.142411708831787E-001,
9.493666666666668E+008,-1.210339926183224E-002,1.476201135665178E-002,-9.546085000038147E-001,-2.842609882354736E-001,-1.210339926183224E-002,1.476201135665178E-002,-9.546085000038147E-001,-2.842609882354736E-001,
9.577333333333334E+008,-1.069492567330599E-002,2.338577061891556E-002,-9.620704650878906E-001,-2.707308232784271E-001,-1.069492567330599E-002,2.338577061891556E-002,-9.620704650878906E-001,-2.707308232784271E-001,
9.661000000000000E+008,-3.615251742303371E-003,3.007167764008045E-002,-9.649118185043335E-001,-2.293472141027451E-001,-3.615251742303371E-003,3.007167764008045E-002,-9.649118185043335E-001,-2.293472141027451E-001,
9.744666666666668E+008,5.428519565612078E-003,3.120114468038082E-002,-9.633975625038147E-001,-2.182254642248154E-001,5.428519565612078E-003,3.120114468038082E-002,-9.633975625038147E-001,-2.182254642248154E-001,
9.828333333333334E+008,1.387818157672882E-002,3.197131678462029E-002,-9.800947308540344E-001,-1.992734819650650E-001,1.387818157672882E-002,3.197131678462029E-002,-9.800947308540344E-001,-1.992734819650650E-001,
9.912000000000000E+008,2.384122461080551E-002,2.559576369822025E-002,-9.782112240791321E-001,-1.764283627271652E-001,2.384122461080551E-002,2.559576369822025E-002,-9.782112240791321E-001,-1.764283627271652E-001,
9.995666666666668E+008,2.754439972341061E-002,1.716026663780212E-002,-9.919647574424744E-001,-1.408863812685013E-001,2.754439972341061E-002,1.716026663780212E-002,-9.919647574424744E-001,-1.408863812685013E-001,
1.007933333333333E+009,3.036819212138653E-002,6.959490012377501E-003,-1.006106138229370E+000,-1.238454356789589E-001,3.036819212138653E-002,6.959490012377501E-003,-1.006106138229370E+000,-1.238454356789589E-001,
1.016300000000000E+009,2.344894595444202E-002,-1.033592125168070E-004,-9.934388399124146E-001,-9.851745516061783E-002,2.344894595444202E-002,-1.033592125168070E-004,-9.934388399124146E-001,-9.851745516061783E-002,
1.024666666666667E+009,1.521575264632702E-002,-5.212276708334684E-003,-9.909656643867493E-001,-7.238139212131500E-002,1.521575264632702E-002,-5.212276708334684E-003,-9.909656643867493E-001,-7.238139212131500E-002,
1.033033333333333E+009,8.316978812217712E-003,-1.807658816687763E-003,-9.992606639862061E-001,-4.723022505640984E-002,8.316978812217712E-003,-1.807658816687763E-003,-9.992606639862061E-001,-4.723022505640984E-002,
1.041400000000000E+009,-2.532507642172277E-004,2.486306708306074E-003,-1.000088810920715E+000,-2.648622356355190E-002,-2.532507642172277E-004,2.486306708306074E-003,-1.000088810920715E+000,-2.648622356355190E-002,
1.049766666666667E+009,-5.662254989147186E-005,1.211795583367348E-002,-9.896175265312195E-001,8.866285905241966E-003,-5.662254989147186E-005,1.211795583367348E-002,-9.896175265312195E-001,8.866285905241966E-003,
1.058133333333333E+009,1.972559140995145E-003,2.083493955433369E-002,-9.917260408401489E-001,3.204063698649406E-002,1.972559140995145E-003,2.083493955433369E-002,-9.917260408401489E-001,3.204063698649406E-002,
1.066500000000000E+009,1.137352176010609E-002,2.577941864728928E-002,-1.008477330207825E+000,6.510306149721146E-002,1.137352176010609E-002,2.577941864728928E-002,-1.008477330207825E+000,6.510306149721146E-002,
1.074866666666667E+009,2.321862615644932E-002,2.514608763158321E-002,-1.004808902740479E+000,8.669456839561462E-002,2.321862615644932E-002,2.514608763158321E-002,-1.004808902740479E+000,8.669456839561462E-002,
1.083233333333334E+009,3.135910257697105E-002,1.735242083668709E-002,-9.879647493362427E-001,1.086809933185577E-001,3.135910257697105E-002,1.735242083668709E-002,-9.879647493362427E-001,1.086809933185577E-001,
1.091600000000000E+009,3.759137541055679E-002,6.514443550258875E-003,-9.711301922798157E-001,1.288290172815323E-001,3.759137541055679E-002,6.514443550258875E-003,-9.711301922798157E-001,1.288290172815323E-001,
1.099966666666667E+009,3.704150766134262E-002,-7.489111740142107E-003,-9.680039286613464E-001,1.664698123931885E-001,3.704150766134262E-002,-7.489111740142107E-003,-9.680039286613464E-001,1.664698123931885E-001,
1.108333333333334E+009,2.873897552490234E-002,-1.664422638714314E-002,-9.670279622077942E-001,1.749809831380844E-001,2.873897552490234E-002,-1.664422638714314E-002,-9.670279622077942E-001,1.749809831380844E-001,
1.116700000000000E+009,1.731634140014648E-002,-2.157614752650261E-002,-9.614904522895813E-001,2.068816870450974E-001,1.731634140014648E-002,-2.157614752650261E-002,-9.614904522895813E-001,2.068816870450974E-001,
1.125066666666667E+009,4.046659916639328E-003,-1.826533302664757E-002,-9.643107056617737E-001,2.225724458694458E-001,4.046659916639328E-003,-1.826533302664757E-002,-9.643107056617737E-001,2.225724458694458E-001,
1.133433333333334E+009,-6.671425886452198E-003,-8.842825889587402E-003,-9.646934866905212E-001,2.667091786861420E-001,-6.671425886452198E-003,-8.842825889587402E-003,-9.646934866905212E-001,2.667091786861420E-001,
1.141800000000000E+009,-1.145162805914879E-002,4.745941609144211E-003,-9.445237517356873E-001,2.823291420936585E-001,-1.145162805914879E-002,4.745941609144211E-003,-9.445237517356873E-001,2.823291420936585E-001,
1.150166666666667E+009,-5.443388130515814E-003,2.054357528686523E-002,-9.365752339363098E-001,2.835210859775543E-001,-5.443388130515814E-003,2.054357528686523E-002,-9.365752339363098E-001,2.835210859775543E-001,
1.158533333333334E+009,7.371664047241211E-003,2.910448051989079E-002,-9.321180582046509E-001,3.247047662734985E-001,7.371664047241211E-003,2.910448051989079E-002,-9.321180582046509E-001,3.247047662734985E-001,
1.166900000000000E+009,2.473716810345650E-002,3.122772090137005E-002,-9.168223738670349E-001,3.463169038295746E-001,2.473716810345650E-002,3.122772090137005E-002,-9.168223738670349E-001,3.463169038295746E-001,
1.175266666666667E+009,4.052286967635155E-002,2.195826359093189E-002,-9.126408100128174E-001,3.766160905361176E-001,4.052286967635155E-002,2.195826359093189E-002,-9.126408100128174E-001,3.766160905361176E-001,
1.183633333333334E+009,5.266254395246506E-002,7.881593890488148E-003,-9.106994867324829E-001,3.885418772697449E-001,5.266254395246506E-002,7.881593890488148E-003,-9.106994867324829E-001,3.885418772697449E-001,
1.192000000000000E+009,5.337395146489143E-002,-1.110447850078344E-002,-8.990294933319092E-001,4.114374220371246E-001,5.337395146489143E-002,-1.110447850078344E-002,-8.990294933319092E-001,4.114374220371246E-001,
1.200366666666667E+009,4.452003911137581E-002,-2.892181277275085E-002,-8.866996765136719E-001,4.333667755126953E-001,4.452003911137581E-002,-2.892181277275085E-002,-8.866996765136719E-001,4.333667755126953E-001,
1.208733333333334E+009,2.897552587091923E-002,-3.937080502510071E-002,-8.817161321640015E-001,4.739260375499725E-001,2.897552587091923E-002,-3.937080502510071E-002,-8.817161321640015E-001,4.739260375499725E-001,
1.217100000000000E+009,1.146780606359243E-002,-3.892422467470169E-002,-8.795441985130310E-001,4.827719926834106E-001,1.146780606359243E-002,-3.892422467470169E-002,-8.795441985130310E-001,4.827719926834106E-001,
1.225466666666667E+009,-3.691966412588954E-003,-2.971079014241695E-002,-8.494333624839783E-001,5.074734091758728E-001,-3.691966412588954E-003,-2.971079014241695E-002,-8.494333624839783E-001,5.074734091758728E-001,
1.233833333333334E+009,-1.144520752131939E-002,-1.258556544780731E-002,-8.462525010108948E-001,5.189633965492249E-001,-1.144520752131939E-002,-1.258556544780731E-002,-8.462525010108948E-001,5.189633965492249E-001,
1.242200000000000E+009,-6.879415828734636E-003,3.857025876641274E-003,-8.235194683074951E-001,5.548059344291687E-001,-6.879415828734636E-003,3.857025876641274E-003,-8.235194683074951E-001,5.548059344291687E-001,
1.250566666666667E+009,3.049636259675026E-003,1.656296104192734E-002,-8.042010664939880E-001,5.619496703147888E-001,3.049636259675026E-003,1.656296104192734E-002,-8.042010664939880E-001,5.619496703147888E-001,
1.258933333333334E+009,2.240780554711819E-002,1.983575150370598E-002,-8.004040718078613E-001,5.855728387832642E-001,2.240780554711819E-002,1.983575150370598E-002,-8.004040718078613E-001,5.855728387832642E-001,
1.267300000000000E+009,4.056202247738838E-002,1.155676320195198E-002,-7.815430760383606E-001,6.012506484985352E-001,4.056202247738838E-002,1.155676320195198E-002,-7.815430760383606E-001,6.012506484985352E-001,
1.275666666666667E+009,5.040165409445763E-002,-5.527650471776724E-003,-7.690072655677795E-001,6.108957529067993E-001,5.040165409445763E-002,-5.527650471776724E-003,-7.690072655677795E-001,6.108957529067993E-001,
1.284033333333334E+009,5.341765284538269E-002,-2.613320015370846E-002,-7.541927099227905E-001,6.537826657295227E-001,5.341765284538269E-002,-2.613320015370846E-002,-7.541927099227905E-001,6.537826657295227E-001,
1.292400000000000E+009,4.342115297913551E-002,-4.624558240175247E-002,-7.412666082382202E-001,6.571059226989746E-001,4.342115297913551E-002,-4.624558240175247E-002,-7.412666082382202E-001,6.571059226989746E-001,
1.300766666666667E+009,2.359608747065067E-002,-5.647373199462891E-002,-7.198925018310547E-001,6.804222464561462E-001,2.359608747065067E-002,-5.647373199462891E-002,-7.198925018310547E-001,6.804222464561462E-001,
1.309133333333334E+009,1.728336443193257E-003,-5.661224946379662E-002,-6.966891884803772E-001,6.952106356620789E-001,1.728336443193257E-003,-5.661224946379662E-002,-6.966891884803772E-001,6.952106356620789E-001,
1.317500000000000E+009,-1.490728463977575E-002,-4.574213176965714E-002,-6.875954866409302E-001,7.258107662200928E-001,-1.490728463977575E-002,-4.574213176965714E-002,-6.875954866409302E-001,7.258107662200928E-001,
1.325866666666667E+009,-2.301232889294624E-002,-2.855614759027958E-002,-6.703495979309082E-001,7.413716316223145E-001,-2.301232889294624E-002,-2.855614759027958E-002,-6.703495979309082E-001,7.413716316223145E-001,
1.334233333333334E+009,-1.827675476670265E-002,-8.513005450367928E-003,-6.529848575592041E-001,7.488982677459717E-001,-1.827675476670265E-002,-8.513005450367928E-003,-6.529848575592041E-001,7.488982677459717E-001,
1.342600000000000E+009,-5.348332691937685E-003,4.062416497617960E-003,-6.381536126136780E-001,7.681615948677063E-001,-5.348332691937685E-003,4.062416497617960E-003,-6.381536126136780E-001,7.681615948677063E-001,
1.350966666666667E+009,1.331859640777111E-002,5.388121120631695E-003,-6.132417321205139E-001,7.827064394950867E-001,1.331859640777111E-002,5.388121120631695E-003,-6.132417321205139E-001,7.827064394950867E-001,
1.359333333333334E+009,2.830644510686398E-002,-5.188494920730591E-003,-6.001995205879211E-001,7.844721078872681E-001,2.830644510686398E-002,-5.188494920730591E-003,-6.001995205879211E-001,7.844721078872681E-001,
1.367700000000000E+009,3.524104505777359E-002,-2.315425500273705E-002,-5.647785663604736E-001,8.063223958015442E-001,3.524104505777359E-002,-2.315425500273705E-002,-5.647785663604736E-001,8.063223958015442E-001,
1.376066666666667E+009,3.195074573159218E-002,-4.481864348053932E-002,-5.497556924819946E-001,8.158736824989319E-001,3.195074573159218E-002,-4.481864348053932E-002,-5.497556924819946E-001,8.158736824989319E-001,
1.384433333333334E+009,1.548587251454592E-002,-6.159836798906326E-002,-5.366346836090088E-001,8.462620973587036E-001,1.548587251454592E-002,-6.159836798906326E-002,-5.366346836090088E-001,8.462620973587036E-001,
1.392800000000000E+009,-5.957676563411951E-003,-6.625037640333176E-002,-5.163374543190002E-001,8.547950387001038E-001,-5.957676563411951E-003,-6.625037640333176E-002,-5.163374543190002E-001,8.547950387001038E-001,
1.401166666666667E+009,-2.876384183764458E-002,-6.112930551171303E-002,-4.895540475845337E-001,8.613971471786499E-001,-2.876384183764458E-002,-6.112930551171303E-002,-4.895540475845337E-001,8.613971471786499E-001,
1.409533333333334E+009,-4.485754668712616E-002,-4.327812790870667E-002,-4.640159010887146E-001,8.766680359840393E-001,-4.485754668712616E-002,-4.327812790870667E-002,-4.640159010887146E-001,8.766680359840393E-001,
1.417900000000000E+009,-4.868393391370773E-002,-1.969432272017002E-002,-4.464620947837830E-001,8.734568953514099E-001,-4.868393391370773E-002,-1.969432272017002E-002,-4.464620947837830E-001,8.734568953514099E-001,
1.426266666666667E+009,-4.129068553447723E-002,4.912256190436892E-005,-4.138873815536499E-001,9.045729041099548E-001,-4.129068553447723E-002,4.912256190436892E-005,-4.138873815536499E-001,9.045729041099548E-001,
1.434633333333334E+009,-2.285799570381641E-002,1.305059436708689E-002,-4.038078784942627E-001,9.002441763877869E-001,-2.285799570381641E-002,1.305059436708689E-002,-4.038078784942627E-001,9.002441763877869E-001,
1.443000000000000E+009,-3.042728640139103E-003,1.535961963236332E-002,-3.801873624324799E-001,9.119390845298767E-001,-3.042728640139103E-003,1.535961963236332E-002,-3.801873624324799E-001,9.119390845298767E-001,
1.451366666666667E+009,1.411248277872801E-002,4.242242313921452E-003,-3.535173833370209E-001,9.149423837661743E-001,1.411248277872801E-002,4.242242313921452E-003,-3.535173833370209E-001,9.149423837661743E-001,
1.459733333333334E+009,2.254323661327362E-002,-1.318300142884255E-002,-3.292907774448395E-001,9.439498782157898E-001,2.254323661327362E-002,-1.318300142884255E-002,-3.292907774448395E-001,9.439498782157898E-001,
