% Version 1.00
%
%freq[Hz],re:Trc1_S11,im:Trc1_S11,re:Trc2_S21,im:Trc2_S21,re:Trc3_S11,im:Trc3_S11,re:Trc4_S21,im:Trc4_S21,
6.900000000000000E+008,-4.095008596777916E-002,2.962617017328739E-002,-4.940075278282166E-001,-8.576177954673767E-001,-4.095008596777916E-002,2.962617017328739E-002,-4.940075278282166E-001,-8.576177954673767E-001,
6.983666666666666E+008,-3.303644806146622E-002,2.973148971796036E-002,-5.195794701576233E-001,-8.463278412818909E-001,-3.303644806146622E-002,2.973148971796036E-002,-5.195794701576233E-001,-8.463278412818909E-001,
7.067333333333334E+008,-2.676589787006378E-002,2.483518607914448E-002,-5.427688956260681E-001,-8.204728364944458E-001,-2.676589787006378E-002,2.483518607914448E-002,-5.427688956260681E-001,-8.204728364944458E-001,
7.151000000000000E+008,-2.617004141211510E-002,1.685693860054016E-002,-5.780357718467712E-001,-8.187606334686279E-001,-2.617004141211510E-002,1.685693860054016E-002,-5.780357718467712E-001,-8.187606334686279E-001,
7.234666666666666E+008,-2.762668579816818E-002,1.137250289320946E-002,-5.918956398963928E-001,-8.041706681251526E-001,-2.762668579816818E-002,1.137250289320946E-002,-5.918956398963928E-001,-8.041706681251526E-001,
7.318333333333334E+008,-3.467276319861412E-002,8.902804926037788E-003,-6.086750626564026E-001,-7.866306900978088E-001,-3.467276319861412E-002,8.902804926037788E-003,-6.086750626564026E-001,-7.866306900978088E-001,
7.402000000000000E+008,-4.080956801772118E-002,1.068022660911083E-002,-6.197744011878967E-001,-7.616355419158936E-001,-4.080956801772118E-002,1.068022660911083E-002,-6.197744011878967E-001,-7.616355419158936E-001,
7.485666666666666E+008,-4.629792645573616E-002,1.743190921843052E-002,-6.495873928070068E-001,-7.490761280059815E-001,-4.629792645573616E-002,1.743190921843052E-002,-6.495873928070068E-001,-7.490761280059815E-001,
7.569333333333334E+008,-5.056536570191383E-002,2.697834372520447E-002,-6.685826182365418E-001,-7.362961173057556E-001,-5.056536570191383E-002,2.697834372520447E-002,-6.685826182365418E-001,-7.362961173057556E-001,
7.653000000000000E+008,-4.610260203480721E-002,3.589052706956863E-002,-6.754289865493774E-001,-7.166171073913574E-001,-4.610260203480721E-002,3.589052706956863E-002,-6.754289865493774E-001,-7.166171073913574E-001,
7.736666666666666E+008,-4.066191241145134E-002,4.220263287425041E-002,-6.893987059593201E-001,-7.132341265678406E-001,-4.066191241145134E-002,4.220263287425041E-002,-6.893987059593201E-001,-7.132341265678406E-001,
7.820333333333334E+008,-3.290092200040817E-002,4.601807519793510E-002,-7.224739789962769E-001,-6.852796077728272E-001,-3.290092200040817E-002,4.601807519793510E-002,-7.224739789962769E-001,-6.852796077728272E-001,
7.904000000000000E+008,-2.352917566895485E-002,4.475990682840347E-002,-7.319470643997192E-001,-6.668512225151062E-001,-2.352917566895485E-002,4.475990682840347E-002,-7.319470643997192E-001,-6.668512225151062E-001,
7.987666666666666E+008,-1.974856294691563E-002,3.909321874380112E-002,-7.382637262344360E-001,-6.523435115814209E-001,-1.974856294691563E-002,3.909321874380112E-002,-7.382637262344360E-001,-6.523435115814209E-001,
8.071333333333334E+008,-1.746372878551483E-002,3.204767033457756E-002,-7.633482217788696E-001,-6.196078658103943E-001,-1.746372878551483E-002,3.204767033457756E-002,-7.633482217788696E-001,-6.196078658103943E-001,
8.155000000000000E+008,-2.017769217491150E-002,2.480913698673248E-002,-7.903767824172974E-001,-6.090494990348816E-001,-2.017769217491150E-002,2.480913698673248E-002,-7.903767824172974E-001,-6.090494990348816E-001,
8.238666666666666E+008,-2.635003440082073E-002,2.237671427428722E-002,-7.979431748390198E-001,-5.854951143264771E-001,-2.635003440082073E-002,2.237671427428722E-002,-7.979431748390198E-001,-5.854951143264771E-001,
8.322333333333334E+008,-3.171271085739136E-002,2.317528799176216E-002,-8.067103028297424E-001,-5.692704319953919E-001,-3.171271085739136E-002,2.317528799176216E-002,-8.067103028297424E-001,-5.692704319953919E-001,
8.406000000000000E+008,-3.645743802189827E-002,2.640167437493801E-002,-8.184921741485596E-001,-5.461208820343018E-001,-3.645743802189827E-002,2.640167437493801E-002,-8.184921741485596E-001,-5.461208820343018E-001,
8.489666666666668E+008,-3.844808414578438E-002,3.745172545313835E-002,-8.308780193328857E-001,-5.166632533073425E-001,-3.844808414578438E-002,3.745172545313835E-002,-8.308780193328857E-001,-5.166632533073425E-001,
8.573333333333334E+008,-3.695621713995934E-002,4.560923576354981E-002,-8.333368897438049E-001,-4.863303005695343E-001,-3.695621713995934E-002,4.560923576354981E-002,-8.333368897438049E-001,-4.863303005695343E-001,
8.657000000000000E+008,-3.241399675607681E-002,5.362640321254730E-002,-8.605781793594360E-001,-4.910492599010468E-001,-3.241399675607681E-002,5.362640321254730E-002,-8.605781793594360E-001,-4.910492599010468E-001,
8.740666666666668E+008,-2.423078753054142E-002,5.885314196348190E-002,-8.679338097572327E-001,-4.664861261844635E-001,-2.423078753054142E-002,5.885314196348190E-002,-8.679338097572327E-001,-4.664861261844635E-001,
8.824333333333334E+008,-1.675293594598770E-002,6.041525676846504E-002,-8.861410021781921E-001,-4.417359232902527E-001,-1.675293594598770E-002,6.041525676846504E-002,-8.861410021781921E-001,-4.417359232902527E-001,
8.908000000000000E+008,-9.352431632578373E-003,5.670003220438957E-002,-9.008822441101074E-001,-4.248878359794617E-001,-9.352431632578373E-003,5.670003220438957E-002,-9.008822441101074E-001,-4.248878359794617E-001,
8.991666666666668E+008,-4.262123722583056E-003,5.051084607839584E-002,-9.013197422027588E-001,-3.986767232418060E-001,-4.262123722583056E-003,5.051084607839584E-002,-9.013197422027588E-001,-3.986767232418060E-001,
9.075333333333334E+008,-4.092878662049770E-003,4.230384528636932E-002,-9.150605797767639E-001,-3.721056282520294E-001,-4.092878662049770E-003,4.230384528636932E-002,-9.150605797767639E-001,-3.721056282520294E-001,
9.159000000000000E+008,-6.438721437007189E-003,3.587504103779793E-002,-9.362978339195252E-001,-3.472357094287872E-001,-6.438721437007189E-003,3.587504103779793E-002,-9.362978339195252E-001,-3.472357094287872E-001,
9.242666666666668E+008,-1.298363786190748E-002,3.551066666841507E-002,-9.278577566146851E-001,-3.258838355541229E-001,-1.298363786190748E-002,3.551066666841507E-002,-9.278577566146851E-001,-3.258838355541229E-001,
9.326333333333334E+008,-1.782442256808281E-002,3.715089336037636E-002,-9.432294368743897E-001,-3.130352497100830E-001,-1.782442256808281E-002,3.715089336037636E-002,-9.432294368743897E-001,-3.130352497100830E-001,
9.410000000000000E+008,-2.200118638575077E-002,4.123179987072945E-002,-9.547579288482666E-001,-2.755062282085419E-001,-2.200118638575077E-002,4.123179987072945E-002,-9.547579288482666E-001,-2.755062282085419E-001,
9.493666666666668E+008,-2.404695749282837E-002,5.067204684019089E-002,-9.591004252433777E-001,-2.465056180953980E-001,-2.404695749282837E-002,5.067204684019089E-002,-9.591004252433777E-001,-2.465056180953980E-001,
9.577333333333334E+008,-2.102235518395901E-002,6.075327098369598E-002,-9.652826189994812E-001,-2.328575402498245E-001,-2.102235518395901E-002,6.075327098369598E-002,-9.652826189994812E-001,-2.328575402498245E-001,
9.661000000000000E+008,-1.293366868048906E-002,6.802648305892944E-002,-9.671875238418579E-001,-1.908875256776810E-001,-1.293366868048906E-002,6.802648305892944E-002,-9.671875238418579E-001,-1.908875256776810E-001,
9.744666666666668E+008,-2.968559972941876E-003,6.903313845396042E-002,-9.655900001525879E-001,-1.802856326103210E-001,-2.968559972941876E-003,6.903313845396042E-002,-9.655900001525879E-001,-1.802856326103210E-001,
9.828333333333334E+008,5.441313609480858E-003,7.048267871141434E-002,-9.814768433570862E-001,-1.615173518657684E-001,5.441313609480858E-003,7.048267871141434E-002,-9.814768433570862E-001,-1.615173518657684E-001,
9.912000000000000E+008,1.561362668871880E-002,6.414701789617539E-002,-9.793498516082764E-001,-1.386934667825699E-001,1.561362668871880E-002,6.414701789617539E-002,-9.793498516082764E-001,-1.386934667825699E-001,
9.995666666666668E+008,1.904064789414406E-002,5.597192421555519E-002,-9.922581315040588E-001,-1.024691686034203E-001,1.904064789414406E-002,5.597192421555519E-002,-9.922581315040588E-001,-1.024691686034203E-001,
1.007933333333333E+009,2.237178012728691E-002,4.585976526141167E-002,-1.005450367927551E+000,-8.511605858802795E-002,2.237178012728691E-002,4.585976526141167E-002,-1.005450367927551E+000,-8.511605858802795E-002,
1.016300000000000E+009,1.625114493072033E-002,3.924239799380302E-002,-9.930092692375183E-001,-5.854439735412598E-002,1.625114493072033E-002,3.924239799380302E-002,-9.930092692375183E-001,-5.854439735412598E-002,
1.024666666666667E+009,8.663313463330269E-003,3.452656045556068E-002,-9.885289072990418E-001,-3.269426152110100E-002,8.663313463330269E-003,3.452656045556068E-002,-9.885289072990418E-001,-3.269426152110100E-002,
1.033033333333333E+009,3.622454358264804E-003,3.874734416604042E-002,-9.961006641387940E-001,-6.525414064526558E-003,3.622454358264804E-003,3.874734416604042E-002,-9.961006641387940E-001,-6.525414064526558E-003,
1.041400000000000E+009,-3.162287641316652E-003,4.362294822931290E-002,-9.966775774955750E-001,1.356057450175285E-002,-3.162287641316652E-003,4.362294822931290E-002,-9.966775774955750E-001,1.356057450175285E-002,
1.049766666666667E+009,-3.342780983075500E-004,5.367091298103333E-002,-9.822770357131958E-001,5.062801390886307E-002,-3.342780983075500E-004,5.367091298103333E-002,-9.822770357131958E-001,5.062801390886307E-002,
1.058133333333333E+009,3.499168669804931E-003,6.325907260179520E-002,-9.843033552169800E-001,7.231234759092331E-002,3.499168669804931E-003,6.325907260179520E-002,-9.843033552169800E-001,7.231234759092331E-002,
1.066500000000000E+009,1.413906738162041E-002,6.850039958953857E-002,-9.999566078186035E-001,1.061402633786202E-001,1.413906738162041E-002,6.850039958953857E-002,-9.999566078186035E-001,1.061402633786202E-001,
1.074866666666667E+009,2.722071111202240E-002,6.813194602727890E-002,-9.947905540466309E-001,1.266551315784454E-001,2.722071111202240E-002,6.813194602727890E-002,-9.947905540466309E-001,1.266551315784454E-001,
1.083233333333334E+009,3.564078360795975E-002,6.081325560808182E-002,-9.776795506477356E-001,1.472891718149185E-001,3.564078360795975E-002,6.081325560808182E-002,-9.776795506477356E-001,1.472891718149185E-001,
1.091600000000000E+009,4.188222438097000E-002,5.031975358724594E-002,-9.601247310638428E-001,1.681090295314789E-001,4.188222438097000E-002,5.031975358724594E-002,-9.601247310638428E-001,1.681090295314789E-001,
1.099966666666667E+009,4.079136997461319E-002,3.642848879098892E-002,-9.557388424873352E-001,2.061034142971039E-001,4.079136997461319E-002,3.642848879098892E-002,-9.557388424873352E-001,2.061034142971039E-001,
1.108333333333334E+009,3.250150009989739E-002,2.757800742983818E-002,-9.550237655639648E-001,2.144377678632736E-001,3.250150009989739E-002,2.757800742983818E-002,-9.550237655639648E-001,2.144377678632736E-001,
1.116700000000000E+009,2.183151803910732E-002,2.311735413968563E-002,-9.480577111244202E-001,2.476357221603394E-001,2.183151803910732E-002,2.311735413968563E-002,-9.480577111244202E-001,2.476357221603394E-001,
1.125066666666667E+009,1.032287161797285E-002,2.678612060844898E-002,-9.496300816535950E-001,2.645749747753143E-001,1.032287161797285E-002,2.678612060844898E-002,-9.496300816535950E-001,2.645749747753143E-001,
1.133433333333334E+009,2.136892871931195E-003,3.616495057940483E-002,-9.478521347045898E-001,3.093437850475311E-001,2.136892871931195E-003,3.616495057940483E-002,-9.478521347045898E-001,3.093437850475311E-001,
1.141800000000000E+009,4.333225369919092E-004,4.940954223275185E-002,-9.255384206771851E-001,3.231204450130463E-001,4.333225369919092E-004,4.940954223275185E-002,-9.255384206771851E-001,3.231204450130463E-001,
1.150166666666667E+009,9.145368821918964E-003,6.434179842472076E-002,-9.164681434631348E-001,3.250497281551361E-001,9.145368821918964E-003,6.434179842472076E-002,-9.164681434631348E-001,3.250497281551361E-001,
1.158533333333334E+009,2.466495707631111E-002,7.228676229715347E-002,-9.097466468811035E-001,3.648859858512878E-001,2.466495707631111E-002,7.228676229715347E-002,-9.097466468811035E-001,3.648859858512878E-001,
1.166900000000000E+009,4.356573522090912E-002,7.343073934316635E-002,-8.939975500106812E-001,3.855658769607544E-001,4.356573522090912E-002,7.343073934316635E-002,-8.939975500106812E-001,3.855658769607544E-001,
1.175266666666667E+009,5.949776247143745E-002,6.361573934555054E-002,-8.877706527709961E-001,4.157442748546600E-001,5.949776247143745E-002,6.361573934555054E-002,-8.877706527709961E-001,4.157442748546600E-001,
1.183633333333334E+009,7.139248400926590E-002,4.977175593376160E-002,-8.865573406219482E-001,4.275307357311249E-001,7.139248400926590E-002,4.977175593376160E-002,-8.865573406219482E-001,4.275307357311249E-001,
1.192000000000000E+009,7.134138792753220E-002,3.127332404255867E-002,-8.742084503173828E-001,4.498164355754852E-001,7.134138792753220E-002,3.127332404255867E-002,-8.742084503173828E-001,4.498164355754852E-001,
1.200366666666667E+009,6.181691586971283E-002,1.427363138645887E-002,-8.612857460975647E-001,4.714795053005219E-001,6.181691586971283E-002,1.427363138645887E-002,-8.612857460975647E-001,4.714795053005219E-001,
1.208733333333334E+009,4.640760645270348E-002,4.708194173872471E-003,-8.551043272018433E-001,5.134945511817932E-001,4.640760645270348E-002,4.708194173872471E-003,-8.551043272018433E-001,5.134945511817932E-001,
1.217100000000000E+009,3.002178110182285E-002,5.088085774332285E-003,-8.506038784980774E-001,5.234436988830566E-001,3.002178110182285E-002,5.088085774332285E-003,-8.506038784980774E-001,5.234436988830566E-001,
1.225466666666667E+009,1.704624481499195E-002,1.510176062583923E-002,-8.188371062278748E-001,5.474345088005066E-001,1.704624481499195E-002,1.510176062583923E-002,-8.188371062278748E-001,5.474345088005066E-001,
1.233833333333334E+009,1.203838549554348E-002,3.142202273011208E-002,-8.143032789230347E-001,5.591906309127808E-001,1.203838549554348E-002,3.142202273011208E-002,-8.143032789230347E-001,5.591906309127808E-001,
1.242200000000000E+009,1.992861554026604E-002,4.615918546915054E-002,-7.900499701499939E-001,5.936560630798340E-001,1.992861554026604E-002,4.615918546915054E-002,-7.900499701499939E-001,5.936560630798340E-001,
1.250566666666667E+009,3.306881710886955E-002,5.703775957226753E-002,-7.685837745666504E-001,5.990568399429321E-001,3.306881710886955E-002,5.703775957226753E-002,-7.685837745666504E-001,5.990568399429321E-001,
1.258933333333334E+009,5.402914062142372E-002,5.824122577905655E-002,-7.638505697250366E-001,6.211667060852051E-001,5.402914062142372E-002,5.824122577905655E-002,-7.638505697250366E-001,6.211667060852051E-001,
1.267300000000000E+009,7.376564294099808E-002,4.853468015789986E-002,-7.442156076431274E-001,6.361704468727112E-001,7.376564294099808E-002,4.853468015789986E-002,-7.442156076431274E-001,6.361704468727112E-001,
1.275666666666667E+009,8.337011933326721E-002,3.099751472473145E-002,-7.317657470703125E-001,6.444873213768005E-001,8.337011933326721E-002,3.099751472473145E-002,-7.317657470703125E-001,6.444873213768005E-001,
1.284033333333334E+009,8.582566678524017E-002,1.030116621404886E-002,-7.161735892295837E-001,6.866495609283447E-001,8.582566678524017E-002,1.030116621404886E-002,-7.161735892295837E-001,6.866495609283447E-001,
1.292400000000000E+009,7.510138303041458E-002,-8.532888256013393E-003,-7.031568288803101E-001,6.892230510711670E-001,7.510138303041458E-002,-8.532888256013393E-003,-7.031568288803101E-001,6.892230510711670E-001,
1.300766666666667E+009,5.517307296395302E-002,-1.764503680169582E-002,-6.816034913063049E-001,7.141913771629334E-001,5.517307296395302E-002,-1.764503680169582E-002,-6.816034913063049E-001,7.141913771629334E-001,
1.309133333333334E+009,3.400566801428795E-002,-1.684017293155193E-002,-6.577327847480774E-001,7.285655140876770E-001,3.400566801428795E-002,-1.684017293155193E-002,-6.577327847480774E-001,7.285655140876770E-001,
1.317500000000000E+009,1.847090572118759E-002,-5.554626695811749E-003,-6.455413699150085E-001,7.596109509468079E-001,1.847090572118759E-002,-5.554626695811749E-003,-6.455413699150085E-001,7.596109509468079E-001,
1.325866666666667E+009,1.275930088013411E-002,1.107345707714558E-002,-6.270645260810852E-001,7.743427157402039E-001,1.275930088013411E-002,1.107345707714558E-002,-6.270645260810852E-001,7.743427157402039E-001,
1.334233333333334E+009,2.036924846470356E-002,2.899065427482128E-002,-6.083296537399292E-001,7.799377441406250E-001,2.036924846470356E-002,2.899065427482128E-002,-6.083296537399292E-001,7.799377441406250E-001,
1.342600000000000E+009,3.568554297089577E-002,3.865329921245575E-002,-5.906056761741638E-001,7.975440621376038E-001,3.568554297089577E-002,3.865329921245575E-002,-5.906056761741638E-001,7.975440621376038E-001,
1.350966666666667E+009,5.632938444614410E-002,3.689910471439362E-002,-5.650424957275391E-001,8.099315762519836E-001,5.632938444614410E-002,3.689910471439362E-002,-5.650424957275391E-001,8.099315762519836E-001,
1.359333333333334E+009,7.213471829891205E-002,2.414509095251560E-002,-5.525331497192383E-001,8.111355304718018E-001,7.213471829891205E-002,2.414509095251560E-002,-5.525331497192383E-001,8.111355304718018E-001,
1.367700000000000E+009,7.900749146938324E-002,5.111908074468374E-003,-5.180337429046631E-001,8.296285867691040E-001,7.900749146938324E-002,5.111908074468374E-003,-5.180337429046631E-001,8.296285867691040E-001,
1.376066666666667E+009,7.586859911680222E-002,-1.681664027273655E-002,-5.026059746742249E-001,8.394466042518616E-001,7.586859911680222E-002,-1.681664027273655E-002,-5.026059746742249E-001,8.394466042518616E-001,
1.384433333333334E+009,5.885096639394760E-002,-3.217270597815514E-002,-4.887475967407227E-001,8.694620132446289E-001,5.885096639394760E-002,-3.217270597815514E-002,-4.887475967407227E-001,8.694620132446289E-001,
1.392800000000000E+009,3.761912509799004E-002,-3.486700356006622E-002,-4.674476385116577E-001,8.781211376190186E-001,3.761912509799004E-002,-3.486700356006622E-002,-4.674476385116577E-001,8.781211376190186E-001,
1.401166666666667E+009,1.583536528050900E-002,-2.788366004824638E-002,-4.397904276847839E-001,8.850256204605103E-001,1.583536528050900E-002,-2.788366004824638E-002,-4.397904276847839E-001,8.850256204605103E-001,
1.409533333333334E+009,1.381490728817880E-003,-1.018233690410852E-002,-4.114179611206055E-001,9.004315137863159E-001,1.381490728817880E-003,-1.018233690410852E-002,-4.114179611206055E-001,9.004315137863159E-001,
1.417900000000000E+009,6.130064721219242E-004,1.307546813040972E-002,-3.929415643215179E-001,8.965722918510437E-001,6.130064721219242E-004,1.307546813040972E-002,-3.929415643215179E-001,8.965722918510437E-001,
1.426266666666667E+009,1.046111527830362E-002,3.040508739650250E-002,-3.566643893718720E-001,9.237686991691589E-001,1.046111527830362E-002,3.040508739650250E-002,-3.566643893718720E-001,9.237686991691589E-001,
1.434633333333334E+009,3.064136020839214E-002,3.962260484695435E-002,-3.472445607185364E-001,9.189717173576355E-001,3.064136020839214E-002,3.962260484695435E-002,-3.472445607185364E-001,9.189717173576355E-001,
1.443000000000000E+009,5.174748599529266E-002,3.752971813082695E-002,-3.228115439414978E-001,9.269869923591614E-001,5.174748599529266E-002,3.752971813082695E-002,-3.228115439414978E-001,9.269869923591614E-001,
1.451366666666667E+009,6.878927350044251E-002,2.254064939916134E-002,-2.967710196971893E-001,9.276077151298523E-001,6.878927350044251E-002,2.254064939916134E-002,-2.967710196971893E-001,9.276077151298523E-001,
1.459733333333334E+009,7.677299529314041E-002,2.600782085210085E-003,-2.707756757736206E-001,9.557744860649109E-001,7.677299529314041E-002,2.600782085210085E-003,-2.707756757736206E-001,9.557744860649109E-001,
